Wavelength,Responsivity
400,0.07212910560291903
401,0.06762768467406141
402,0.06366719801662023
403,0.060173003515867914
404,0.05708305395713313
405,0.054345536772107295
406,0.05191700348258346
407,0.04976088040455973
408,0.04784627744182824
409,0.04614703104401263
410,0.0446409320520393
411,0.04330910031511497
412,0.042135476488578315
413,0.04110640795673768
414,0.04021031085536645
415,0.03943739406077171
416,0.03877943404155307
417,0.03822959184288924
418,0.03778226534854055
419,0.03743297146232882
420,0.037178254060422036
421,0.037015614559501656
422,0.0369434627799218
423,0.03696108650249008
424,0.037068638760070494
425,0.03726714250339965
426,0.03755851286411964
427,0.03794559783610913
428,0.03843223883900878
429,0.03902335334897202
430,0.03972504262046568
431,0.04054472852742463
432,0.04149132478276924
433,0.04257544933024562
434,0.043809686644015855
435,0.04520891115512472
436,0.04679068623171935
437,0.04857575731730221
438,0.05058866331219382
439,0.0528584975242396
440,0.05541985914257495
441,0.058314049067230624
442,0.061590581251455126
443,0.06530910413216026
444,0.06954185850833587
445,0.07437684148069554
446,0.0799219049590149
447,0.08631009721137056
448,0.09370666363563357
449,0.10231826551750633
450,0.11240515796316275
451,0.12269419903278728
452,0.1346108679429252
453,0.14848424627937507
454,0.16472077867049023
455,0.18382179391919895
456,0.20640226833770914
457,0.23320733737254928
458,0.26511837985055686
459,0.303131427696428
460,0.3482743346000365
461,0.40140314190855353
462,0.46278631096741735
463,0.5313751458590769
464,0.6037517497475555
465,0.673088186341432
466,0.7290863072268636
467,0.7602382937924672
468,0.7585297108061635
469,0.7238051793929386
470,0.6639680493266986
471,0.5907711265053808
472,0.5149071393016775
473,0.44349268788167945
474,0.3800404745600141
475,0.3255455157671157
476,0.27961474921546825
477,0.24125349073718866
478,0.2093099689073632
479,0.18268856668677824
480,0.16043256878287765
481,0.14174195132987571
482,0.12596275582175726
483,0.11256650276290128
484,0.10112816538640305
485,0.09130618116838626
486,0.08282558355779226
487,0.07546428550312959
488,0.06904214476160703
489,0.06341233602752934
490,0.058454574625661816
491,0.054069800285242
492,0.05017600161208212
493,0.04670492796037508
494,0.04359949092483395
495,0.04081170230003516
496,0.038301030362084224
497,0.03603308341910342
498,0.03397855038903677
499,0.032112344097709494
500,0.030412905180513504
501,0.029018788537716084
502,0.02773078384203027
503,0.02653878296690903
504,0.02543384180366487
505,0.02440802560124595
506,0.023454277435574
507,0.022566305994325547
508,0.0217384895459135
509,0.02096579351327167
510,0.02024369952049824
511,0.019568144144455426
512,0.018935465900568806
513,0.018342359235423725
514,0.017785834498691887
515,0.01726318303170778
516,0.016771946646256447
517,0.01630989088011705
518,0.015874981509880256
519,0.01546536387995038
520,0.015079344672222893
521,0.014715375795941545
522,0.01437204012351467
523,0.014048038837098403
524,0.013742180183756527
525,0.013453369464980105
526,0.013180600110124778
527,0.01292294570357174
528,0.012679552852711416
529,0.012449634798643305
530,0.012232465684178418
531,0.012027375404639412
532,0.011833744976351826
533,0.01165100236583146
534,0.011478618729692422
535,0.011316105021381901
536,0.011163008926132721
537,0.011018912090122096
538,0.010883427613836196
539,0.010756197783142159
540,0.01063689201463917
541,0.010525204994548695
542,0.010420854992772344
543,0.010323582335827673
544,0.010233148024214095
545,0.010149332481387451
546,0.01007193442296781
547,0.010000769836087777
548,0.009935671059935383
549,0.0098764859595691
550,0.00982307718600319
551,0.00979804148226246
552,0.009778101311321325
553,0.009763200127871432
554,0.009753292117455785
555,0.00974834196785997
556,0.009748324688032436
557,0.009753225473082702
558,0.009763039614260099
559,0.009777772453155767
560,0.009797439379703426
561,0.009822065873879304
562,0.009851687591327818
563,0.0098863504934655
564,0.00992611102294872
565,0.009971036325732374
566,0.010021204521303268
567,0.010076705023043918
568,0.010137638911078667
569,0.010204119360375803
570,0.010276272127333057
571,0.010354236098566349
572,0.010438163906156461
573,0.01052822261419698
574,0.01062459448213141
575,0.010727477811083509
576,0.010837087880176791
577,0.010953657980722667
578,0.011077440557144089
579,0.011208708464605298
580,0.011347756354561861
581,0.011494902200842368
582,0.011650488980451307
583,0.011814886525068926
584,0.011988493561246564
585,0.012171739959595616
586,0.0123650892158846
587,0.012569041189942447
588,0.012784135131676621
589,0.013010953027418587
590,0.013250123304287296
591,0.013502324935409024
592,0.013768291994762722
593,0.01404881871725928
594,0.014344765127578558
595,0.01465706331045707
596,0.014986724405767388
597,0.015334846424124873
598,0.01570262299321431
599,0.01609135316192952
600,0.016502452409223475
601,0.016898532448422862
602,0.017315717954911415
603,0.01775538106944117
604,0.018219012186527044
605,0.018708232147189283
606,0.01922480592390014
607,0.01977065800807438
608,0.02034788974411389
609,0.020958798893732256
610,0.021605901761217877
611,0.022291958265920484
612,0.023020000414330367
613,0.023793364702836724
614,0.02461572907627016
615,0.025491155179932473
616,0.026424136778035956
617,0.027419655374324083
618,0.028483244267322246
619,0.02962106251089034
620,0.03083998054012265
621,0.032147679575190706
622,0.03355276734647378
623,0.03506491321214908
624,0.036695006388026793
625,0.038455341808650866
626,0.040359839126103886
627,0.04242430157584755
628,0.0446667229567575
629,0.047107652859843765
630,0.049770632630100176
631,0.05268271747380994
632,0.055875103770694566
633,0.05938388518613821
634,0.06325096680111951
635,0.06752517340528225
636,0.07226359655113523
637,0.07753323511790264
638,0.0834129960121948
639,0.08999613493831972
640,0.09739323091475206
641,0.10573580005890998
642,0.11518065922577528
643,0.12591513877565624
644,0.13816319793807133
645,0.1521923826095244
646,0.16832132413498335
647,0.18692700387118083
648,0.20845012435220678
649,0.23339534635934336
650,0.26232044460644777
651,0.2956937096174212
652,0.33410870093281714
653,0.3779054995403395
654,0.42702338807234663
655,0.4806676204008303
656,0.5368817152555739
657,0.5921436798258639
658,0.6412638435654768
659,0.6779754253861519
660,0.6964332226639143
661,0.6932128356527764
662,0.6687230387246441
663,0.6270562128833725
664,0.5743768026828228
665,0.5169232558439643
666,0.45964397804342844
667,0.40575400346386803
668,0.3569304224433103
669,0.31375224415726255
670,0.27612946295701385
671,0.24362370908430023
672,0.21565414497901975
673,0.19161543770732345
674,0.1709379786352218
675,0.15311373167569572
676,0.13770320926104235
677,0.12433296037972949
678,0.11268889517072203
679,0.1025082941196868
680,0.09357192150810553
681,0.08569687503323077
682,0.07873038840301946
683,0.0725445975256005
684,0.06703218808706198
685,0.06210280875637929
686,0.057680130130762904
687,0.05369943879085108
688,0.050105670111239696
689,0.046851798609412396
690,0.043897518707156295
691,0.041208161086732774
692,0.03875380019734005
693,0.03650851702405349
694,0.03444978819653827
695,0.03255797813815886
696,0.030815915474396792
697,0.029208538540525294
698,0.027722597727756555
699,0.026346404728801648
700,0.025069620604888387
701,0.023938240365335622
702,0.022881500724807036
703,0.021893096150764423
704,0.020967363337268688
705,0.020099205352593817
706,0.0192840258963761
707,0.018517672176486165
708,0.017796385154709715
709,0.017116756108085985
710,0.016475688616895964
711,0.015870365226897477
712,0.015298218147382282
713,0.014756903441987386
714,0.014244278249163488
715,0.013758380636453339
716,0.01329741174941372
717,0.012859719963915793
718,0.012443786791127235
719,0.0120482143189269
720,0.011671714002813686
721,0.011313096644373475
722,0.010971263416736658
723,0.010645197814766284
724,0.010333958423431266
725,0.010036672411338751
726,0.009752529668049676
727,0.009480777513869458
728,0.009220715919510363
729,0.008971693180575111
730,0.00873310199836832
731,0.00850437592424831
732,0.0082849861297076
733,0.008074438468711772
734,0.00787227080262769
735,0.007678050561398211
736,0.007491372517543626
737,0.007311856752134943
738,0.0071391467941459424
739,0.006972907916581138
740,0.006812825574537493
741,0.006658603971911536
742,0.006509964744841751
743,0.006366645751195639
744,0.00622839995649649
745,0.006094994407647417
746,0.00596620928666884
747,0.005841837037429777
748,0.005721681559036488
749,0.005605557460151029
750,0.005493289369058259
751,0.005386129486898303
752,0.005282443095669101
753,0.005182084115389224
754,0.005084914037758442
755,0.0049908014624539705
756,0.0048996216660991705
757,0.004811256201308572
758,0.004725592523441969
759,0.004642523642907127
760,0.004561947801038413
761,0.0044837681677470514
762,0.0044078925592932585
763,0.0043342331746683005
764,0.004262706349201747
765,0.004193232324123258
766,0.004125735030912474
767,0.004060141889365727
768,0.003996383618394047
769,0.003934394058646482
770,0.0038741100061233974
771,0.0038154710560112924
772,0.0037584194560293174
773,0.0037028999686333154
774,0.0036488597414728353
775,0.003596248185542774
776,0.0035450168605129758
777,0.0034951193667582137
778,0.003446511243645875
779,0.0033991498736716135
780,0.0033529943920627284
781,0.0033080056014969913
782,0.0032641458916094963
783,0.0032213791629836955
784,0.003179670755344214
785,0.003138987379688773
786,0.0030992970541149053
787,0.003060569043114046
788,0.003022773800121015
789,0.0029858829131216742
790,0.0029498690531343883
791,0.002914705925393808
792,0.0028803682230764587
793,0.00284683158341853
794,0.00281407254608598
795,0.00278206851366612
796,0.002750797714158425
797,0.002720239165350132
798,0.0026903726409694163
799,0.002661178638515843
800,0.002632638348674091
801,0.002603079270555626
802,0.0025741821473191343
803,0.002545928541725196
804,0.002518300662344177
805,0.00249128133688668
806,0.0024648539868069213
807,0.002439002603110213
808,0.0024137117233001323
809,0.0023889664094045656
810,0.0023647522270236034
811,0.002341055225345546
812,0.00231786191808041
813,0.0022951592652633596
814,0.002272934655883161
815,0.002251175891293363
816,0.002229871169366346
817,0.0022090090693526105
818,0.002188578537409825
819,0.0021685688727682076
820,0.002148969714500446
821,0.0021297710288664916
822,0.0021109630972048314
823,0.002092536504343703
824,0.002074482127506864
825,0.0020567911256902344
826,0.002039454929486669
827,0.0020224652313376628
828,0.0020058139761915663
829,0.0019894933525493167
830,0.0019734957838794913
831,0.001957813920385366
832,0.0019424406311078835
833,0.0019273689963488355
834,0.0019125923003997882
835,0.0018981040245627102
836,0.0018838978404491285
837,0.0018699676035452866
838,0.0018563073470313786
839,0.001842911275843536
840,0.0018297737609678454
841,0.0018168893339561413
842,0.0018042526816538706
843,0.001791858641130857
844,0.0017797021948060105
845,0.001767778465757825
846,0.0017560827132125445
847,0.0017446103282024775
848,0.0017333568293872938
849,0.001722317859031331
850,0.0017114891791304254
851,0.0017011709461297727
852,0.001691035425221126
853,0.0016810792267204166
854,0.0016712990475153406
855,0.0016616916685510993
856,0.0016522539524022606
857,0.001642982840927541
858,0.0016338753530042898
859,0.00162492858233961
860,0.0016161396953552317
861,0.0016075059291433737
862,0.001599024589490878
863,0.001590693048969102
864,0.0015825087450870986
865,0.001574469178505766
866,0.0015665719113106796
867,0.001558814565341497
868,0.0015511948205758361
869,0.0015437104135656546
870,0.0015363591359242785
871,0.0015291388328621456
872,0.001522047401769663
873,0.0015150827908453786
874,0.0015082429977679285
875,0.0015015260684101803
876,0.0014949300955941127
877,0.0014884532178849963
878,0.0014820936184235093
879,0.0014758495237944549
880,0.0014697192029308687
881,0.0014637009660522634
882,0.001457793163635835
883,0.0014519941854195548
884,0.001446302459436036
885,0.0014407164510761544
886,0.0014352346621814235
887,0.0014298556301641598
888,0.001424577927154545
889,0.0014194001591736477
890,0.00141432096533164
891,0.001409339017050269
892,0.0014044530173089014
893,0.0013996616999133358
894,0.0013949638287866573
895,0.0013903581972814056
896,0.001385843627512445
897,0.001381418969709804
898,0.0013770831015909293
899,0.001372834927751683
900,0.0013686733790755554
901,0.0013657491915871622
902,0.0013629097535919287
903,0.0013601542235932504
904,0.001357481784459004
905,0.0013548916429454434
906,0.001352383029236868
907,0.0013499551965006425
908,0.001347607420457059
909,0.0013453389989637062
910,0.0013431492516138802
911,0.0013410375193486513
912,0.0013390031640822429
913,0.001337045568340322
914,0.0013351641349108848
915,0.0013333582865073983
916,0.001331627465443852
917,0.0013299711333214625
918,0.0013283887707266912
919,0.0013268798769403177
920,0.0013254439696572659
921,0.0013240805847170003
922,0.001322789275844129
923,0.001321569614399059
924,0.0013204211891384727
925,0.001319343605985335
926,0.0013183364878083027
927,0.001317399474210315
928,0.001316532221326098
929,0.001315734401628533
930,0.0013150057037435911
931,0.0013143458322737525
932,0.00131375450762967
933,0.0013132314658700233
934,0.0013127764585493295
935,0.0013123892525736178
936,0.001312069630063837
937,0.0013118173882268704
938,0.0013116323392340112
939,0.0013115143101068408
940,0.0013114631426103776
941,0.0013114786931533741
942,0.0013115608326957312
943,0.001311709446662892
944,0.0013119244348671598
945,0.0013122057114358574
946,0.0013125532047462733
947,0.0013129668573673165
948,0.001313446626007825
949,0.0013139924814714956
950,0.0013146044086183692
951,0.0013149574566562806
952,0.0013153776181001533
953,0.0013158648699547312
954,0.0013164192036632478
955,0.0013170406250828928
956,0.0013177291544670246
957,0.001318484826454054
958,0.001319307690063057
959,0.0013201978086959656
960,0.0013211552601465205
961,0.0013221801366158073
962,0.0013232725447345109
963,0.0013244326055918108
964,0.0013256604547709787
965,0.0013269562423917183
966,0.001328320133159186
967,0.001329752306419833
968,0.0013312529562240333
969,0.0013328222913955622
970,0.0013344605356079666
971,0.0013361679274679094
972,0.0013379447206054965
973,0.0013397911837717015
974,0.0013417076009429173
975,0.0013436942714327427
976,0.001345751510011071
977,0.0013478796470305704
978,0.0013500790285606518
979,0.0013523500165290255
980,0.0013546929888709495
981,0.0013571083396862996
982,0.0013595964794045525
983,0.0013621578349578315
984,0.0013647928499621496
985,0.0013675019849069855
986,0.001370285717353315
987,0.0013731445421403129
988,0.001376078971600832
989,0.0013790895357858588
990,0.001382176782698111
991,0.0013853412785350017
992,0.0013885836079411014
993,0.001391904374270353
994,0.0013953041998582567
995,0.0013987837263042028
996,0.0014023436147642373
997,0.001405984546254454
998,0.0014097072219653433
999,0.0014135123635872315
1000,0.0014174007136472477
