Wavelength,Responsivity
400,0.7037951847681716
401,0.7610601821097893
402,0.7813399232846001
403,0.7573412316159127
404,0.6959022320604635
405,0.6133326399653201
406,0.5260036709977803
407,0.44465871663310874
408,0.37408811287877836
409,0.3151830449538837
410,0.2669446225299617
411,0.2277326640422584
412,0.1958746184049745
413,0.16990221102881992
414,0.14860903660602287
415,0.13103479510811222
416,0.11642614839332949
417,0.10419520258797352
418,0.09388312849390235
419,0.08513067839683391
420,0.07765516508841061
421,0.07123280954915481
422,0.06568531249114516
423,0.060869660746922225
424,0.05667037876521179
425,0.052993618266488206
426,0.04976262856261326
427,0.04691426590099841
428,0.04439628760081161
429,0.042165241781435894
430,0.04018481155831721
431,0.038424508051328965
432,0.03685863274387732
433,0.03546544912581577
434,0.034226517970437347
435,0.03312616136327076
436,0.03215102868428084
437,0.031289743848386314
438,0.0305326177445823
439,0.029871413356439058
440,0.02929915377189942
441,0.028809965401612285
442,0.028398950373681536
443,0.028062083371709387
444,0.027796129217568966
445,0.02759857833530698
446,0.027467597917922658
447,0.02740199719368867
448,0.02740120568460123
449,0.02746526379253538
450,0.02759482546129325
451,0.027787592489667702
452,0.02803232215947966
453,0.028330692950656697
454,0.028684802634764656
455,0.0290972008953911
456,0.029570929864571285
457,0.030109573690070567
458,0.03071731853349597
459,0.03139902474450741
460,0.03216031337902377
461,0.03300766975123525
462,0.033948567358746656
463,0.03499161633399856
464,0.03614674160118116
465,0.03742539721906069
466,0.038840825049512785
467,0.040408368019110984
468,0.042145850983446025
469,0.044074045756888516
470,0.046217241497269065
471,0.048603947689379215
472,0.051267764930462895
473,0.05424846922862975
474,0.05759336944778384
475,0.061359016030586744
476,0.06561336374209008
477,0.0704385239005138
478,0.07593428490954411
479,0.08222263682968198
480,0.08945360921967944
481,0.09781282340650517
482,0.10753126848755021
483,0.11889792157169839
484,0.13227590758170435
485,0.14812283327982184
486,0.1670155044629808
487,0.18967793828309434
488,0.2170083436296058
489,0.2500934070327312
490,0.29018279137604575
491,0.33856694784365
492,0.3962512911656416
493,0.463259125619749
494,0.5373965944968384
495,0.6125924621473781
496,0.6778009826405769
497,0.7186420957864472
498,0.7233065156151626
499,0.6896806007016172
500,0.6269295836146671
501,0.5590936559424919
502,0.4891864826047584
503,0.42327686209638493
504,0.3644213008631446
505,0.3135467978987697
506,0.27037456635867213
507,0.23407823832347174
508,0.20366787096011688
509,0.1781821095005266
510,0.15676818919851138
511,0.1387037868849777
512,0.12339201292835758
513,0.11034598715598772
514,0.09917095590927433
515,0.08954742981810733
516,0.08121660236776418
517,0.07396828070746181
518,0.06763112976185122
519,0.06206488678356724
520,0.05715418821374088
521,0.05280368699962852
522,0.048934190289756305
523,0.04547959893130951
524,0.042384475422923715
525,0.03960210439338621
526,0.03709293964737042
527,0.03482335538766891
528,0.03276463756474655
529,0.030892165499071388
530,0.0291847448808387
531,0.027624061710370827
532,0.026194233278569692
533,0.024881437348005207
534,0.023673604625344475
535,0.02256016267759161
536,0.021531821838464967
537,0.020580395529959532
538,0.019698648904380694
539,0.018880170883045878
540,0.018119265597800235
541,0.01741085998301078
542,0.016750424859333528
543,0.016133907327628295
544,0.015557672676303628
545,0.015018454317076234
546,0.014513310517495576
547,0.014039586905266122
548,0.013594883888602924
549,0.013177028275848105
550,0.012784048492136622
551,0.012450115542580662
552,0.012135195319239091
553,0.011838021484818356
554,0.011557435320644087
555,0.01129237517384008
556,0.011041867093462079
557,0.010805016506168611
558,0.010581000802725567
559,0.010369062724229468
560,0.010168504451908186
561,0.009978682317134897
562,0.00979900205921979
563,0.009628914567912568
564,0.009467912055599183
565,0.009315524611105776
566,0.009171317093005938
567,0.009034886325496544
568,0.008905858564389262
569,0.008783887204654818
570,0.00866865070433985
571,0.008559850702626062
572,0.008457210312375023
573,0.008360472569755877
574,0.00826939902552571
575,0.008183768464266682
576,0.008103375739408126
577,0.00802803071320548
578,0.007957557292034104
579,0.007891792548405307
580,0.007830585922041625
581,0.007773798493174581
582,0.007721302321962159
583,0.007672979848579403
584,0.007628723349120475
585,0.0075884344429756004
586,0.007552023647817849
587,0.00751940997875928
588,0.007490520588619844
589,0.007465290446600912
590,0.007443662052972104
591,0.0074255851876697514
592,0.007411016690972637
593,0.007399920274665366
594,0.0073922663623296764
595,0.007388031957617029
596,0.0073872005395582505
597,0.00738976198415635
598,0.007395712511693337
599,0.007405054659358384
600,0.007417797278978174
601,0.0074322358768264575
602,0.007449528675594688
603,0.007469693897554327
604,0.007492754260979767
605,0.007518737043925009
606,0.007547674163368495
607,0.00757960227014815
608,0.007614562860200291
609,0.0076526024027138515
610,0.007693772485913027
611,0.007738129981289752
612,0.0077857372272236176
613,0.007836662233049935
614,0.007890978904770847
615,0.00794876729374861
616,0.008010113869876396
617,0.008075111820893878
618,0.008143861379700548
619,0.008216470181725244
620,0.008293053654634496
621,0.008373735442910849
622,0.008458647870105663
623,0.008547932441873315
624,0.008641740393229591
625,0.008740233283849985
626,0.008843583645637108
627,0.008951975687249767
628,0.00906560606080103
629,0.009184684696508882
630,0.009309435711729598
631,0.009440098401526304
632,0.009576928318739773
633,0.009720198452441363
634,0.00987020051467944
635,0.010027246346592699
636,0.010191669456276418
637,0.010363826702276535
638,0.010544100138269452
639,0.01073289903640046
640,0.010930662108930764
641,0.01113785995032039
642,0.011354997724706318
643,0.011582618126967217
644,0.011821304649272108
645,0.01207168518925789
646,0.012334436040865704
647,0.012610286314489922
648,0.012900022839582366
649,0.013204495610356443
650,0.013524623843926994
651,0.0138644569848739
652,0.014222077668637048
653,0.014598657489115237
654,0.014995468990355924
655,0.015413896152646711
656,0.015855446170237472
657,0.016321762704507473
658,0.01681464082616965
659,0.01733604389528696
660,0.017888122669573736
661,0.018473236980988364
662,0.019093980379643924
663,0.01975320821457085
664,0.020454069705359575
665,0.02120004466023968
666,0.021994985618560968
667,0.022843166343644028
668,0.02374933777152685
669,0.02471879273966472
670,0.025757441086508334
671,0.0268718970398976
672,0.028069581214294353
673,0.029358840033056277
674,0.030749086006400368
675,0.03225096305938415
676,0.03387654205680452
677,0.03563955286441032
678,0.03755566078395947
679,0.03964279708829485
680,0.041921555771440924
681,0.0444156716594708
682,0.047152598883568694
683,0.05016421363279454
684,0.05348767138173553
685,0.057166456808839014
686,0.061251674859287786
687,0.06580364443566478
688,0.07089387268050537
689,0.0766075084359224
690,0.08304639879209885
691,0.09033290276517444
692,0.09861464997478586
693,0.10807046594506481
694,0.11891770995354087
695,0.13142126555257067
696,0.145904345248177
697,0.16276103427234442
698,0.18246993971341963
699,0.20560712316465288
700,0.23285412507738867
701,0.26314752498413624
702,0.29854754366204095
703,0.33975649920312656
704,0.38731371282684735
705,0.441330428558562
706,0.5010626962420569
707,0.5643265006977325
708,0.6269008239533571
709,0.6823172007758028
710,0.7226443759346655
711,0.7406210777890463
712,0.7324687070640563
713,0.6996467071412233
714,0.6481947474935417
715,0.586173535894412
716,0.5210094809400946
717,0.4580423441219962
718,0.40034129494732434
719,0.3492036252055436
720,0.30479682723674917
721,0.2666808871826238
722,0.23415324581657998
723,0.20644724910543316
724,0.1828328452557788
725,0.16265960325209608
726,0.1453687215473625
727,0.13048989862334973
728,0.11763182197767832
729,0.10647079511139032
730,0.09673965610590929
731,0.08821788553457426
732,0.08072316873092245
733,0.07410438053515264
734,0.06823583808185166
735,0.06301263120815895
736,0.05834684428271096
737,0.05416450391568332
738,0.05040311241345814
739,0.047009651598316105
740,0.043938963542759446
741,0.04115243325735307
742,0.03861691352662659
743,0.03630384430329114
744,0.03418852881831855
745,0.032249536296760466
746,0.030468207284772807
747,0.028828242424843206
748,0.027315359334370425
749,0.025917005263662914
750,0.024622115604120164
751,0.02342719348776344
752,0.022316745953175454
753,0.021283113886509126
754,0.020319476556879105
755,0.019419745042222884
756,0.018578470968327827
757,0.01779076812320299
758,0.017052244932368517
759,0.016358946124805915
760,0.015707302200054576
761,0.015094085536736863
762,0.014516372171529833
763,0.013971508433116422
764,0.013457081744212215
765,0.012970895011371202
766,0.012510944110954473
767,0.012075398053627171
768,0.011662581471653161
769,0.011270959125197419
770,0.01089912216754823
771,0.010545775946045197
772,0.01020972914668204
773,0.009889884116805574
774,0.009585228222811387
775,0.009294826118900113
776,0.00901781281932118
777,0.008753387480544581
778,0.008500807811821437
779,0.008259385042933503
780,0.008028479386838486
781,0.007807495942612165
782,0.007595880990742763
783,0.007393118638602681
784,0.007198727778936081
785,0.007012259328559678
786,0.006833293718278033
787,0.00666143860833383
788,0.006496326806619166
789,0.006337614369418779
790,0.006184978866690727
791,0.006038117795855098
792,0.005896747129789619
793,0.00576059998625825
794,0.005629425407344721
795,0.005502987238655817
796,0.0053810630991144685
797,0.005263443433098982
798,0.005149930637516861
799,0.005040338257141502
800,0.004934490242198769
801,0.004828766197522697
802,0.004726631191153278
803,0.00462792726063674
804,0.004532504976345218
805,0.004440222897753933
806,0.0043509470695262
807,0.004264550554122359
808,0.004180912997949919
809,0.004099920228342241
810,0.0040214638788967135
811,0.003945441040923068
812,0.0038717539389503397
813,0.0038003096284201605
814,0.00373101971385583
815,0.0036638000859431693
816,0.0035985706760917513
817,0.0035352552271656233
818,0.0034737810791817484
819,0.0034140789688738016
820,0.0033560828421089007
821,0.003299729678227445
822,0.0032449593254506052
823,0.0031917143465685126
824,0.003139939874184268
825,0.003089583474845807
826,0.003040595021449437
827,0.00299292657334671
828,0.002946532263629241
829,0.002901368193106274
830,0.002857392330526387
831,0.0028145644186276823
832,0.002772845885632193
833,0.002732199761827949
834,0.00269259060090846
835,0.002653984405763022
836,0.0026163485584333084
837,0.0025796517539720437
838,0.002543863937958024
839,0.0025089562474391648
840,0.0024749009550909806
841,0.00244167141639268
842,0.002409242019636547
843,0.002377588138598896
844,0.0023466860877122903
845,0.002316513079589819
846,0.0022870471847616846
847,0.0022582672934939687
848,0.0022301530795678743
849,0.0022026849659054814
850,0.0021758440919357395
851,0.002150840787453816
852,0.0021263690443189404
853,0.0021024144795631543
854,0.0020789631948092066
855,0.0020560017569629043
856,0.0020335171797936204
857,0.0020114969063568656
858,0.0019899287922152953
859,0.0019688010894170836
860,0.0019481024311930853
861,0.0019278218173361889
862,0.0019079486002285206
863,0.0018884724714840007
864,0.0018693834491755618
865,0.0018506718656181012
866,0.0018323283556797778
867,0.0018143438455958329
868,0.001796709542260428
869,0.0017794169229734414
870,0.0017624577256203223
871,0.0017458239392642708
872,0.0017295077951312188
873,0.0017135017579689906
874,0.0016977985177630936
875,0.001682390981792465
876,0.0016672722670094042
877,0.0016524356927287076
878,0.0016378747736118045
879,0.0016235832129324096
880,0.0016095548961109342
881,0.0015957838845055148
882,0.0015822644094480942
883,0.001568990866514651
884,0.0015559578100191526
885,0.0015431599477213555
886,0.001530592135739047
887,0.0015182493736557836
888,0.001506126799815659
889,0.001494219686796936
890,0.0014825234370569782
891,0.0014710335787409727
892,0.0014597457616476325
893,0.0014486557533451448
894,0.0014377594354310346
895,0.0014270527999299411
896,0.001416531945823541
897,0.0014061930757071207
898,0.001396032492567602
899,0.0013860465966779882
900,0.0013762318826035134
901,0.001367411645010767
902,0.0013587530879383054
903,0.0013502530140796437
904,0.0013419083119230505
905,0.001333715953101657
906,0.00132567298983972
907,0.0013177765524911623
908,0.0013100238471665637
909,0.0013024121534450821
910,0.0012949388221678711
911,0.0012876012733096557
912,0.0012803969939254648
913,0.001273323536169422
914,0.0012663785153828218
915,0.0012595596082487482
916,0.0012528645510106041
917,0.0012462911377521238
918,0.0012398372187364252
919,0.0012335006988018695
920,0.0012272795358125258
921,0.0012211717391611907
922,0.001215175368322923
923,0.0012092885314572066
924,0.0012035093840569483
925,0.0011978361276424835
926,0.0011922670084989816
927,0.0011868003164556432
928,0.0011814343837050587
929,0.0011761675836614062
930,0.001170998329855919
931,0.0011659250748683944
932,0.0011609463092933465
933,0.0011560605607396244
934,0.001151266392862266
935,0.0011465624044254361
936,0.0011419472283953752
937,0.001137419531062286
938,0.0011329780111901202
939,0.00112862139919334
940,0.0011243484563396914
941,0.001120157973978062
942,0.001116048772790636
943,0.001112019702068442
944,0.0011080696390095368
945,0.0011041974880390472
946,0.001100402180150352
947,0.001096682672266659
948,0.0010930379466223402
949,0.0010894670101633454
950,0.001085968893966072
951,0.0010822529056305169
952,0.0010786108329646558
953,0.0010750417028864978
954,0.0010715445658586783
955,0.0010681184953458779
956,0.0010647625872887987
957,0.0010614759595941135
958,0.0010582577516399655
959,0.0010551071237963974
960,0.0010520232569603796
961,0.0010490053521048808
962,0.0010460526298415988
963,0.001043164329996894
964,0.001040339711200549
965,0.0010375780504869646
966,0.0010348786429083714
967,0.0010322408011597536
968,0.001029663855215098
969,0.0010271471519746488
970,0.0010246900549228258
971,0.0010222919437965193
972,0.001019952214263438
973,0.0010176702776102356
974,0.001015445560440117
975,0.0010132775043796866
976,0.0010111655657947369
977,0.0010091092155147764
978,0.001007107938566005
979,0.001005161233912547
980,0.0010032686142056883
981,0.0010014296055409207
982,0.0009996437472225748
983,0.0009979105915358419
984,0.0009962297035260048
985,0.0009946006607846698
986,0.0009930230532428353
987,0.0009914964829706237
988,0.0009900205639835093
989,0.0009885949220548712
990,0.0009872191945347294
991,0.0009858930301745335
992,0.0009846160889577977
993,0.0009833880419365287
994,0.0009822085710732486
995,0.0009810773690885172
996,0.0009799941393138236
997,0.0009789585955497196
998,0.0009779704619291168
999,0.000977029472785582
1000,0.0009761353725265859
