Wavelength (nm),Responsivity
400,0.030743931889968136
401,0.031661856029562535
402,0.03261518690816484
403,0.033603434828701206
404,0.034625854754392234
405,0.03568141743344124
406,0.03676878098889675
407,0.03788626379274073
408,0.03903181958390198
409,0.04020301592135858
410,0.04139701717531434
411,0.0426105733393929
412,0.043840015981410144
413,0.045081262625696214
414,0.046329830763040536
415,0.04758086250432235
416,0.04882916062399842
417,0.0500692363788036
418,0.051295369041727684
419,0.052501676576502704
420,0.05368219631746639
421,0.05483097394613115
422,0.055942158508162934
423,0.05701010073552576
424,0.05802945157088443
425,0.0589952575727877
426,0.05990304983914903
427,0.06074892323824802
428,0.061529603079977596
429,0.06224249687755001
430,0.06288572950769547
431,0.0634581608292816
432,0.06395938561201626
433,0.06438971640204308
434,0.06475015065685857
435,0.06504232407385607
436,0.06526845248314642
437,0.06543126495883014
438,0.06553393092105878
439,0.06557998396465871
440,0.06557324498007569
441,0.06551774685721495
442,0.06541766271423852
443,0.06527723920345938
444,0.06510073604447739
445,0.06489237254544261
446,0.06465628151596756
447,0.0643964706629892
448,0.0641167913013598
449,0.06382091400678096
450,0.06351231068855771
451,0.06385022994815497
452,0.06418138229959386
453,0.0645063619293567
454,0.0648257562818247
455,0.06514014511121131
456,0.06545009970464008
457,0.06575618226245233
458,0.06605894542206427
459,0.0663589319120839
460,0.06665667432391933
461,0.06695269498871047
462,0.06724750594810047
463,0.0675416090080807
464,0.06783549586589098
465,0.06812964830072091
466,0.06842453841970708
467,0.06872062895146906
468,0.06901837358014726
469,0.06931821731358909
470,0.0696205968800033
471,0.06992594114800613
472,0.07023467156557824
473,0.07054720261398754
474,0.07086394227323142
475,0.07118529249602126
476,0.07151164968774637
477,0.07184340519024192
478,0.07218094576753592
479,0.07252465409206064
480,0.07287490923010002
481,0.07323208712549382
482,0.07359656108084836
483,0.07396870223569808
484,0.07434888004124444
485,0.07473746273144874
486,0.07513481779039316
487,0.07554131241594449
488,0.0759573139798565
489,0.07638319048453396
490,0.07681931101676315
491,0.07726604619877664
492,0.07772376863707445
493,0.0781928533694787
494,0.07867367831093036
495,0.0791666246985813
496,0.07967207753675584
497,0.08019042604238698
498,0.08072206409154957
499,0.08126739066773422
500,0.08182681031251826
501,0.08068363022574068
502,0.07957195580773428
503,0.07849165794782975
504,0.07744256925063424
505,0.0764244885068481
506,0.07543718494595567
507,0.07448040226650272
508,0.07355386244272291
509,0.07265726930888768
510,0.07179031192496828
511,0.07095266772904625
512,0.07014400548342421
513,0.06936398802261096
514,0.06861227481231458
515,0.06788852432930974
516,0.06719239627257952
517,0.06652355361649892
518,0.06588166451704479
519,0.06526640408212558
520,0.06467745601712689
521,0.06411451415669772
522,0.06357728389367318
523,0.06306548351585023
524,0.0625788454611296
525,0.06211711750131236
526,0.06168006386460578
527,0.061267466306664964
528,0.06087912513977924
529,0.060514860229605436
530,0.06017451196868062
531,0.05985794223579323
532,0.05956503535018829
533,0.059295699029508264
534,0.059049865360350666
535,0.058827491790350635
536,0.0586285621507807
537,0.05845308771880401
538,0.058301108328727355
539,0.05817269354188174
540,0.058067943885116824
541,0.057986992168341654
542,0.057930004892077155
543,0.05789718375662309
544,0.05788876728519324
545,0.0579050325742356
546,0.05794629718516675
547,0.058012921192895896
548,0.0581053094078415
549,0.058223913789645684
550,0.05836923607250958
551,0.05843658891743664
552,0.058532748340652495
553,0.058658070274340904
554,0.058812968362919237
555,0.05899791614976917
556,0.05921344952047811
557,0.05946016942118707
558,0.05973874487264624
559,0.060049916302796755
560,0.060394499223134106
561,0.060773388276805104
562,0.0611875616893606
563,0.06163808615636829
564,0.06212612220571115
565,0.0626529300763995
566,0.06321987616014008
567,0.06382844005678115
568,0.06448022230013953
569,0.06517695281664947
570,0.06592050018582092
571,0.06671288177870283
572,0.06755627485847525
573,0.0684530287359944
574,0.069405678082656
575,0.07041695751335154
576,0.07148981756363447
577,0.07262744219750662
578,0.07383326799548531
579,0.07511100518679839
580,0.07646466070460126
581,0.07789856345890649
582,0.07941739203819637
583,0.0810262050671755
584,0.08273047446424815
585,0.08453612185738853
586,0.086449558430091
587,0.08847772847858788
588,0.09062815696563811
589,0.09290900135219782
590,0.09532910797271185
591,0.09789807318778843
592,0.10062630949331564
593,0.1035251166791842
594,0.10660675800257119
595,0.10988454115549318
596,0.11337290354479457
597,0.11708750103978115
598,0.12104529884562826
599,0.1252646624872735
600,0.12976544598457712
601,0.13403627845891505
602,0.13855660501646522
603,0.14334175458717763
604,0.14840771571633737
605,0.1537710488758178
606,0.15944875655117774
607,0.16545809972126668
608,0.17181634697004045
609,0.17854043980486142
610,0.18564655487187576
611,0.19314954080201202
612,0.20106220464553015
613,0.20939442067078334
614,0.21815203334024502
615,0.22733552743945218
616,0.23693844286976432
617,0.24694552115595797
618,0.25733058727077146
619,0.2680541962061589
620,0.27906111105916237
621,0.29027772989773815
622,0.30160964249348254
623,0.3129395725602652
624,0.3241260395128591
625,0.3350031432280441
626,0.34538191649681427
627,0.35505367772653224
628,0.3637957239758196
629,0.3713795100974276
630,0.3775811583934003
631,0.38219375723156734
632,0.38504049395194884
633,0.38598731626772087
634,0.3849536301503671
635,0.38191960619678783
636,0.3769290133181586
637,0.370087084852063
638,0.3615536309886296
639,0.3515322843750315
640,0.3402572534621472
641,0.3279791673266936
642,0.3149515135921795
643,0.3014188588069815
644,0.2876076027463397
645,0.2737195644157493
646,0.2599283130533717
647,0.24637788830985735
648,0.233183408775971
649,0.22043302945945614
650,0.20819074615194205
651,0.19631746141419276
652,0.18509194031836515
653,0.17451048916154568
654,0.1645601496008668
655,0.1552211666509617
656,0.14646902399887113
657,0.13827608569205985
658,0.13061289296028986
659,0.1234491674953065
660,0.11675457061698732
661,0.11049926335854846
662,0.10465430695217467
663,0.09919193735993631
664,0.09408574189543967
665,0.08931076090067164
666,0.08484353300228833
667,0.08066209869599657
668,0.07674597386306084
669,0.07307610224657403
670,0.06963479383245438
671,0.06640565441546732
672,0.06337351031324759
673,0.060524331158056555
674,0.05784515289252057
675,0.055324002475908095
676,0.05294982533371352
677,0.05071241622439521
678,0.04860235392806909
679,0.046610939962771936
680,0.04473014138864086
681,0.04295253765650302
682,0.041271271385060905
683,0.0396800029023947
684,0.03817286835694917
685,0.0367444411858716
686,0.03538969672099078
687,0.03410397971215139
688,0.03288297455197561
689,0.03172267799383893
690,0.030619374164767548
691,0.029569611686194618
692,0.028570182727427444
693,0.027618103828797716
694,0.02671059834348214
695,0.025845080358627964
696,0.025019139967586812
697,0.02423052977561909
698,0.023477152531343137
699,0.022757049785449193
700,0.02206839148676004
701,0.021464420746944615
702,0.02088457341384277
703,0.02032763702634989
704,0.01979247179861766
705,0.019278005619888405
706,0.018783229438169114
707,0.01830719299564819
708,0.017849000886616742
709,0.01740780891124705
710,0.016982820700936867
711,0.016573284593063273
712,0.016178490734930107
713,0.01579776839845508
714,0.015430483488741736
715,0.01507603623113492
716,0.014733859022679624
717,0.01440341443510379
718,0.014084193357536986
719,0.013775713268171376
720,0.01347751662497485
721,0.013189169366390592
722,0.012910259513706421
723,0.012640395867462316
724,0.012379206790886957
725,0.012126339073924498
726,0.011881456871930367
727,0.011644240713591263
728,0.01141438657305626
729,0.011191605001664181
730,0.010975620315012955
731,0.01076616983145038
732,0.010563003158368748
733,0.010365881522964858
734,0.010174577144381436
735,0.009988872644381674
736,0.009808560493922355
737,0.009633442493189173
738,0.009463329282838972
739,0.009298039884361004
740,0.009137401267621659
741,0.008981247943799899
742,0.00882942158204899
743,0.008681770648341254
744,0.008538150065062347
745,0.008398420890023756
746,0.008262450013655612
747,0.008130109873229898
748,0.008001278183042635
749,0.007875837679559615
750,0.007753675880596979
751,0.007639708356344936
752,0.00752863286009125
753,0.007420357007293785
754,0.007314792037416554
755,0.007211852647534036
756,0.007111456834677524
757,0.007013525746408015
758,0.0069179835391345
759,0.006824757243726547
760,0.0067337766380004115
761,0.00664497412568362
762,0.006558284621488953
763,0.0064736454419512856
764,0.006390996201703301
765,0.006310278714885351
766,0.00623143690140433
767,0.006154416697773939
768,0.006079165972284345
769,0.006005634444265639
770,0.0059337736072227875
771,0.005863536655633789
772,0.005794878415214691
773,0.0057277552764672226
774,0.005662125131335144
775,0.005597947312806144
776,0.005535182537305305
777,0.005473792849735001
778,0.0054137415710248235
779,0.0053549932480625815
780,0.005297513605884836
781,0.005241269502012626
782,0.005186228882823809
783,0.0051323607418603855
784,0.005079635079973937
785,0.005028022867218405
786,0.004977496006404018
787,0.0049280272982309085
788,0.004879590407925615
789,0.0048321598333075895
790,0.004785710874216865
791,0.004740219603237736
792,0.004695662837656648
793,0.004652018112595894
794,0.004609263655267832
795,0.004567378360296885
796,0.004526341766059914
797,0.004486134031997586
798,0.0044467359168519115
799,0.004408128757787828
800,0.004370294450358288
801,0.004337375859744251
802,0.004305108316903908
803,0.004273477904129379
804,0.004242471104534886
805,0.004212074788930676
806,0.004182276203201642
807,0.004153062956168437
808,0.004124423007910834
809,0.004096344658533408
810,0.004068816537354995
811,0.0040418275925039136
812,0.004015367080902102
813,0.003989424558621873
814,0.0039639898715999235
815,0.003939053146693667
816,0.003914604783066201
817,0.0038906354438861127
818,0.0038671360483296426
819,0.0038440977638727917
820,0.0038215119988619576
821,0.0037993703953516002
822,0.00377766482219881
823,0.0037563873684041947
824,0.0037355303366895976
825,0.003715086237303434
826,0.0036950477820446785
827,0.00367540787849698
828,0.003656159624465105
829,0.0036372963026055916
830,0.0036188113752445095
831,0.0036006984793751206
832,0.003582951421828624
833,0.0035655641746116656
834,0.003548530870404146
835,0.003531845798211712
836,0.0035155033991669457
837,0.0034994982624739646
838,0.003483825121491208
839,0.0034684788499473825
840,0.003453454458285686
841,0.0034387470901319868
842,0.0034243520188822364
843,0.0034102646444051487
844,0.003396480489855949
845,0.0033829951985974885
846,0.0033698045312247587
847,0.0033569043626895272
848,0.003344290679521493
849,0.0033319595771427535
850,0.0033199072572723974
851,0.0033077827407620502
852,0.0032959070462520016
853,0.003284276923819705
854,0.00327288920566566
855,0.003261740804261908
856,0.0032508287105583776
857,0.0032401499922456566
858,0.003229701792072101
859,0.0032194813262138473
860,0.00320948588269591
861,0.0031997128198629817
862,0.0031901595648982694
863,0.00318082361238907
864,0.003171702522937634
865,0.00316279392181588
866,0.0031540954976629343
867,0.0031456050012239603
868,0.003137320244129281
869,0.003129239097712599
870,0.0031213594918671943
871,0.0031136794139390222
872,0.0031061969076558267
873,0.0030989100720909745
874,0.0030918170606615246
875,0.0030849160801591567
876,0.0030782053898134676
877,0.003071683300386469
878,0.003065348173297797
879,0.0030591984197795878
880,0.00305323250006044
881,0.0030474489225776717
882,0.0030418462432172297
883,0.003036423064580546
884,0.0030311780352777124
885,0.003026109849246452
886,0.003021217245096141
887,0.0030164990054764628
888,0.0030119539564701235
889,0.0030075809670090615
890,0.0030033789483137315
891,0.002999346853354923
892,0.0029954836763377395
893,0.00299178845220726
894,0.002988260256175454
895,0.002984898203269047
896,0.002981701447897849
897,0.0029786691834432955
898,0.002975800641866834
899,0.0029730950933377224
900,0.0029705518458801846
901,0.0029689134989627276
902,0.002967458590247992
903,0.0029661866710657177
904,0.002965097339960367
905,0.0029641902424782703
906,0.002963465070980628
907,0.002962921564482213
908,0.002962559508515613
909,0.002962378735020913
910,0.002962379122260702
911,0.0029625605947604335
912,0.002962923123273976
913,0.002963466724774393
914,0.002964191462469997
915,0.0029650974458456597
916,0.0029661848307294303
917,0.0029674538193845378
918,0.002968904660626948
919,0.0029705376499684927
920,0.0029723531297857894
921,0.002974351489515136
922,0.0029765331658735015
923,0.002978898643105977
924,0.0029814484532597364
925,0.0029841831764849686
926,0.0029871034413630013
927,0.002990209925261961
928,0.002993503354720213
929,0.002996984505858258
930,0.003000654204819083
931,0.0030045133282378435
932,0.003008562803740945
933,0.003012803610475315
934,0.0030172367796682574
935,0.0030218633952185363
936,0.0030266845943191217
937,0.003031701568112454
938,0.0030369155623787072
939,0.0030423278782578554
940,0.003047939873006219
941,0.0030537529607882995
942,0.003059768613504661
943,0.003065988361656881
944,0.0030724137952501825
945,0.0030790465647349153
946,0.003085888381987867
947,0.003092941021334215
948,0.0031002063206115
949,0.00310768618227647
950,0.0031153825745562046
951,0.0031246852397275003
952,0.003134208753486002
953,0.0031439555022207766
954,0.0031539279429179386
955,0.0031641286046136165
956,0.0031745600898987706
957,0.003185225076477158
958,0.0031961263187785076
959,0.003207266649628179
960,0.0032186489819755605
961,0.003230276310682843
962,0.003242151714376208
963,0.0032542783573615585
964,0.0032666594916067855
965,0.003279298458793052
966,0.0032921986924371134
967,0.003305363720087411
968,0.0033187971655962573
969,0.0033325027514709018
970,0.003346484301306068
971,0.0033607457423011143
972,0.003375291107864444
973,0.003390124540308643
974,0.003405250293639385
975,0.003420672736441621
976,0.003436396354866521
977,0.0034524257557229567
978,0.003468765669677362
979,0.003485420954565976
980,0.00350239659882371
981,0.003519697725034099
982,0.0035373295936048516
983,0.0035552976065737502
984,0.003573607311550169
985,0.0035922644057971376
986,0.003611274740459613
987,0.0036306443249446412
988,0.0036503793314594545
989,0.0036704860997135566
990,0.0036909711417916595
991,0.0037118411472039934
992,0.003733102988121413
993,0.0037547637248025855
994,0.00377683061122127
995,0.0037993111009017636
996,0.003822212852971232
997,0.0038455437384377544
998,0.0038693118467037933
999,0.0038935254923245953
1000,0.003918193222022203
