Wavelength,Responsivity
400,0.02463045018760563
401,0.024927638888789815
402,0.0252731094155996
403,0.025667724810529736
404,0.02611248588285396
405,0.02660852062633251
406,0.02715707020756686
407,0.027759471064878694
408,0.02841713253140671
409,0.02913150928190924
410,0.029904067804117064
411,0.03073624601885666
412,0.03162940512828015
413,0.032584772771889
414,0.03360337663315519
415,0.03468596778715648
416,0.035832933337315936
417,0.03704419828535511
418,0.0383191171419518
419,0.03965635654242697
420,0.04105377110010651
421,0.042508275912511044
422,0.04401572051059321
423,0.04557077055261021
424,0.047166805110952885
425,0.0487958388289773
426,0.05044847932799375
427,0.05211393076799119
428,0.05378005413046713
429,0.05543349333202967
430,0.057059873494115156
431,0.05864407351914279
432,0.060170569682729595
433,0.0616238406106171
434,0.06298881737991964
435,0.06425135638010483
436,0.06539870789693518
437,0.06641995098816898
438,0.06730636571109247
439,0.06805171735474584
440,0.06865243376073193
441,0.0691076653550927
442,0.06941922707898841
443,0.06959143076409757
444,0.06963082449244415
445,0.06954586123213718
446,0.06934652208234063
447,0.06904391976742658
448,0.06864990595037829
449,0.06817670210902885
450,0.06763656886909815
451,0.06777755253758347
452,0.06788243288815848
453,0.0679545541404781
454,0.06799727766604705
455,0.06801394738096421
456,0.06800785976701805
457,0.06798223851854777
458,0.06794021368428618
459,0.06788480507316963
460,0.06781890961946088
461,0.06774529235305365
462,0.06766658059248025
463,0.06758526096750397
464,0.06750367888184688
465,0.06742404004129304
466,0.06734841369513742
467,0.06727873726711982
468,0.06721682208337632
469,0.06716435993776745
470,0.06712293026781811
471,0.06709400774632449
472,0.06707897012375072
473,0.06707910618431737
474,0.06709562370389213
475,0.06712965732032988
476,0.06718227624673184
477,0.0672544917753333
478,0.0673472645345104
479,0.06746151147392421
480,0.06759811256330595
481,0.06775791719904861
482,0.06794175031984248
483,0.06815041823826003
484,0.06838471419969377
485,0.0686454236835223
486,0.06893332946402349
487,0.06924921645048986
488,0.06959387632737918
489,0.06996811201624337
490,0.0703727419817433
491,0.07080860440433658
492,0.07127656124229864
493,0.07177750220567418
494,0.07231234866457666
495,0.07288205751404295
496,0.07348762501739071
497,0.07413009064979632
498,0.07481054096359147
499,0.07553011349661733
500,0.07629000074487112
501,0.07555602068910114
502,0.0748749011541686
503,0.07424623925062222
504,0.07366967533280279
505,0.07314490050567515
506,0.07267166371883374
507,0.07224977853368592
508,0.07187912964860298
509,0.0715596792656794
510,0.07129147338183418
511,0.07107464808643436
512,0.07090943594756258
513,0.07079617256958123
514,0.07073530340587057
515,0.07072739091263977
516,0.07077312213261429
517,0.07087331680130006
518,0.07102893607351451
519,0.0712410919740732
520,0.07151105768406384
521,0.0718402787831603
522,0.07223038557910183
523,0.07268320666796776
524,0.07320078388343204
525,0.07378538881002332
526,0.07443954105481834
527,0.07516602849428053
528,0.07596792973846161
529,0.07684863908390464
530,0.07781189425977607
531,0.07886180730946385
532,0.08000289899266705
533,0.0812401371413868
534,0.08257897945782822
535,0.08402542130358458
536,0.08558604909817635
537,0.08726810002150157
538,0.08907952879934135
539,0.09102908244376887
540,0.09312638392073264
541,0.09538202582410907
542,0.0978076752470309
543,0.10041619115365502
544,0.10322175566187294
545,0.1062400207407529
546,0.10948827189215007
547,0.11298561040383767
548,0.11675315570249399
549,0.12081426915681506
550,0.12519480032387753
551,0.12945585390417308
552,0.13400884621340564
553,0.1388710946943426
554,0.1440600873154541
555,0.14959312322545473
556,0.15548682728343938
557,0.16175650769958314
558,0.1684153214848636
559,0.175473208678245
560,0.18293555447841303
561,0.190801540085951
562,0.19906215058356813
563,0.20769782465470832
564,0.21667576022113955
565,0.22594693646217545
566,0.23544298011444414
567,0.24507309457259585
568,0.2547213820662141
569,0.26424501264338995
570,0.27347380854657455
571,0.2822118852621772
572,0.29024197533396845
573,0.29733290762138304
574,0.30325038438724883
575,0.30777068827121434
576,0.31069631760134686
577,0.31187191953992116
578,0.3111984479946899
579,0.3086433996379295
580,0.30424538411880464
581,0.29811213047266805
582,0.29041213265940335
583,0.2813612056911659
584,0.27120597936416896
585,0.2602066300332664
586,0.2486209357082264
587,0.23669117096081566
588,0.22463463957735258
589,0.2126379663407737
590,0.20085476063237295
591,0.1894059693820912
592,0.17838213712202458
593,0.1678468336978332
594,0.15784063492870254
595,0.14838519685947255
596,0.13948711513938938
597,0.1311413883957484
598,0.12333440137361526
599,0.1160464109032196
600,0.10925356012457138
601,0.10335905767981729
602,0.09785798385926023
603,0.0927249351057561
604,0.08793526026782511
605,0.08346531196463389
606,0.0792926078895257
607,0.07539592344133728
608,0.07175533289047026
609,0.06835221273212468
610,0.06516921792438271
611,0.06219023929502289
612,0.05940034845678599
613,0.05678573502346063
614,0.054333639700325675
615,0.052032285871440376
616,0.04987081157071967
617,0.047839203159829036
618,0.04592823160753109
619,0.04412939194285988
620,0.042434846214790066
621,0.04083737011514701
622,0.03933030329452342
623,0.03790750331130177
624,0.03656330309244442
625,0.03529247174445642
626,0.034090178528422735
627,0.03295195980007637
628,0.03187368871129277
629,0.030851547470789317
630,0.029882001967309987
631,0.028961778566825077
632,0.02808784290524334
633,0.027257380509077028
634,0.026467779087867765
635,0.0257166123535838
636,0.025001625233369483
637,0.024320720352772593
638,0.023671945676789104
639,0.023053483205667906
640,0.022463638631380498
641,0.02190083186897454
642,0.021363588384702658
643,0.02085053124986964
644,0.020360373855804175
645,0.019891913231266104
646,0.01944402390898512
647,0.019015652292929223
648,0.01860581148235725
649,0.018213576512756714
650,0.017838079977439292
651,0.01749431771351004
652,0.01716514905375751
653,0.016849884314021964
654,0.01654787591141308
655,0.016258515477015144
656,0.015981231196082902
657,0.0157154853560761
658,0.015460772084736358
659,0.015216615262080478
660,0.014982566591685655
661,0.014758203817994543
662,0.01454312907758663
663,0.014336967373461334
664,0.014139365162369223
665,0.013949989046124506
666,0.013768524558640648
667,0.013594675041163282
668,0.013428160598839318
669,0.013268717132359421
670,0.013116095438959325
671,0.012970060377557376
672,0.012830390093257281
673,0.012696875296852983
674,0.012569318595345297
675,0.01244753386981853
676,0.01233134569733539
677,0.012220588813790685
678,0.012115107614922401
679,0.012014755692915335
680,0.011919395406249391
681,0.01182889748064241
682,0.011743140639121612
683,0.01166201125942398
684,0.011585403057082947
685,0.011513216792700016
686,0.011445360002034007
687,0.01138174674766242
688,0.011322297391084396
689,0.01126693838424102
690,0.011215602079528535
691,0.01116822655747337
692,0.011124755471325909
693,0.011085137907913635
694,0.011049328264172598
695,0.011017286138852295
696,0.010988976238960564
697,0.010964368300585725
698,0.010943437023800011
699,0.010926162021414953
700,0.010912527781423487
701,0.010910031443718271
702,0.010910696757560255
703,0.010914526617763463
704,0.01092152763669643
705,0.010931710168249025
706,0.010945088341181464
707,0.010961680102025301
708,0.010981507267748356
709,0.011004595588437874
710,0.011030974820301461
711,0.011060678809332342
712,0.011093745586034539
713,0.011130217471655796
714,0.01117014119643184
715,0.011213568030404042
716,0.011260553927435642
717,0.011311159683119455
718,0.011365451107342158
719,0.011423499212348781
720,0.011485380417235187
721,0.011551176769888278
722,0.011620976187492311
723,0.01169487271682823
724,0.0117729668157101
725,0.011855365657030784
726,0.011942183457029808
727,0.012033541829548737
728,0.012129570168207725
729,0.01223040605862193
730,0.012336195722977469
731,0.012447094499510956
732,0.012563267359680563
733,0.012684889466088867
734,0.012812146774513818
735,0.012945236683737425
736,0.01308436873722451
737,0.013229765381109513
738,0.013381662783398245
739,0.013540311719789335
740,0.013705978532073502
741,0.013878946165685885
742,0.014059515293671776
743,0.014248005535092586
744,0.014444756776751947
745,0.01465013060807943
746,0.014864511880074576
747,0.015088310400416183
748,0.015321962778179979
749,0.015565934433120106
750,0.015820721786164973
751,0.01609276091226082
752,0.016376757489917362
753,0.016673315930426348
754,0.0169830820552608
755,0.017306746430678182
756,0.017645048019956956
757,0.017998778187697916
758,0.018368785094818915
759,0.018755978527623143
760,0.0191613352097241
761,0.019585904651749433
762,0.02003081560073456
763,0.02049728315908318
764,0.020986616652059087
765,0.021500228333155454
766,0.022039643028558216
767,0.022606508835514988
768,0.02320260900498851
769,0.023829875156845315
770,0.02449040199634195
771,0.025186463724236878
772,0.025920532359966334
773,0.02669529822850094
774,0.027513692897399484
775,0.02837891489189702
776,0.02929445856344824
777,0.030264146541900332
778,0.031292166264453
779,0.03238311114691058
780,0.03354202704571478
781,0.034774464754166234
782,0.03608653938447118
783,0.03748499761008074
784,0.03897729388127427
785,0.04057167688181414
786,0.042277287665583335
787,0.04410427109807978
788,0.04606390242496058
789,0.048168730991788
790,0.050432743333927985
791,0.052871548023878286
792,0.055502584774400926
793,0.058345360302157874
794,0.061421713285652185
795,0.06475611029439589
796,0.06837597366185307
797,0.07231204068498395
798,0.07659875091142787
799,0.08127465412024384
800,0.0863828251967423
801,0.0919514592183115
802,0.09804383748542152
803,0.10471653052866309
804,0.11203126542194122
805,0.12005461044595116
806,0.12885717268408567
807,0.13851206697986848
808,0.14909232702277142
809,0.160666824608464
810,0.1732941507492324
811,0.18701381649948162
812,0.20183410167524948
813,0.2177160042009555
814,0.23455315919844644
815,0.2521484876092468
816,0.2701898802707785
817,0.2882294798261745
818,0.30567378885895813
819,0.32179396629560664
820,0.33576556650158895
821,0.3467425934997513
822,0.35396108607831234
823,0.3568544514501621
824,0.3551521201415352
825,0.34893199736682906
826,0.3386091581520614
827,0.3248640310063774
828,0.3085326170722576
829,0.29048975830162616
830,0.27155195201237853
831,0.2524138138214247
832,0.2336194232872676
833,0.21556135512134444
834,0.19849720230003304
835,0.18257428685547672
836,0.1678558812204442
837,0.15434504367785584
838,0.1420043404602781
839,0.13077111780273043
840,0.12056872820209823
841,0.11131441562377684
842,0.10292461017350919
843,0.09531830458079497
844,0.08841906190791261
845,0.08215607808265334
846,0.07646461277288481
847,0.07128601350906814
848,0.06656749025144809
849,0.062261747686654254
850,0.05832654671536409
851,0.054923312367181246
852,0.05178761835598408
853,0.04889420564319705
854,0.04622046694874729
855,0.04374616123557329
856,0.041453155214776174
857,0.03932519102275754
858,0.037347678535515655
859,0.035507510428516534
860,0.033792897948972354
861,0.03219322536238001
862,0.030698921113435203
863,0.02930134386699606
864,0.02799268174393625
865,0.026765863224127502
866,0.0256144783447746
867,0.02453270897111945
868,0.02351526705492632
869,0.02255733992266222
870,0.02165454174945537
871,0.02080287047702347
872,0.01999866952445402
873,0.019238593720858434
874,0.01851957895946524
875,0.017838815134637385
876,0.01719372197754295
877,0.016581927453644337
878,0.016001248426627784
879,0.015449673329596781
880,0.014925346615953964
881,0.014426554789990846
882,0.01395171384129227
883,0.013499357928109721
884,0.013068129173246477
885,0.012656768452080408
886,0.012264107066423838
887,0.011889059210246642
888,0.011530615144091403
889,0.011187835004491432
890,0.010859843183026047
891,0.01054582321696686
892,0.010245013139909678
893,0.009956701246460148
894,0.009680222230044177
895,0.009414953657333401
896,0.00916031274667728
897,0.008915753421389947
898,0.008680763611797437
899,0.008454862782664673
900,0.008237599665029367
901,0.008015773866473553
902,0.007802769464925374
903,0.007598135920105432
904,0.007401450628176954
905,0.007212316895934458
906,0.007030362082331135
907,0.006855235891907157
908,0.006686608806247028
909,0.006524170640988713
910,0.0063676292171480405
911,0.006216709136628418
912,0.0060711506527766045
913,0.005930708627726297
914,0.005795151569064105
915,0.005664260739059363
916,0.0055378293303350035
917,0.005415661702426244
918,0.005297572674186602
919,0.005183386867460997
920,0.005072938097860625
921,0.004966068808848068
922,0.004862629545678505
923,0.004762478466046946
924,0.004665480884566859
925,0.004571508848454519
926,0.004480440742018615
927,0.0043921609177588975
928,0.00430655935206296
929,0.004223531323658427
930,0.004142977113130603
931,0.004064801721954448
932,0.003988914609616494
933,0.003915229447516831
934,0.003843663888447404
935,0.00377413935053726
936,0.0037065808146439718
937,0.0036409166342496026
938,0.0035770783569930515
939,0.0035150005570372556
940,0.0034546206775308936
941,0.003395878882480479
942,0.003338717917400047
943,0.003283082978152864
944,0.0032289215874428106
945,0.0031761834784531087
946,0.0031248204851666303
947,0.003074786438935437
948,0.003026037070898719
949,0.0029785299198762695
950,0.0029322242453916243
951,0.002888924864126981
952,0.0028466851106305115
953,0.0028054715568699147
954,0.002765252072787232
955,0.002725995766808098
956,0.0026876729294881335
957,0.002650254980109958
958,0.002613714416056343
959,0.0025780247647967493
960,0.0025431605383349548
961,0.002509097189975444
962,0.002475811073275219
963,0.002443279403056474
964,0.002411480218363218
965,0.0023803923472524415
966,0.0023499953733172804
967,0.0023202696038459427
968,0.0022911960395261325
969,0.0022627563456103193
970,0.0022349328244621663
971,0.0022077083894095958
972,0.0021810665398340357
973,0.0021549913374299995
974,0.002129467383572793
975,0.002104479797735949
976,0.0020800141969033836
977,0.00205605667592446
978,0.0020325937887632
979,0.0020096125305956144
980,0.001987100320711841
981,0.0019650449861821915
982,0.0019434347462485221
983,0.0019222581974045704
984,0.00190150429913082
985,0.001881162360251525
986,0.0018612220258831455
987,0.0018416732649452444
988,0.0018225063582064912
989,0.0018037118868397795
990,0.0017852807214619754
991,0.0017672040116351391
992,0.001749473175807188
993,0.0017320798916712512
994,0.0017150160869240038
995,0.0016982739304042794
996,0.0016818458235943483
997,0.001665724392466963
998,0.0016499024796623899
999,0.0016343731369802233
1000,0.0016191296181717182
