Wavelength,Responsivity
400,0.5165533713149877
401,0.42042764405433153
402,0.3411229670397071
403,0.2784559301641099
404,0.22972296406012782
405,0.1918915606875351
406,0.1623602871755444
407,0.13910056605156132
408,0.12059036807333273
409,0.10570331946072027
410,0.09360719047311228
411,0.08368424904415872
412,0.07547241035611689
413,0.06862281279222687
414,0.06286948782135823
415,0.05800767346651814
416,0.053878235985248935
417,0.05035640005274899
418,0.047343528058966175
419,0.04476107072902315
420,0.04254607624202505
421,0.040647827953872784
422,0.03902530718695918
423,0.037645265192932
424,0.03648074957700212
425,0.03550997352372337
426,0.03471544673749824
427,0.03408330895234671
428,0.033602822806789376
429,0.033265994638003796
430,0.03306730059414941
431,0.033003502297131365
432,0.033073541767880035
433,0.03327850995124627
434,0.033621687349414384
435,0.03410865934323122
436,0.03474751309307364
437,0.035549127838786325
438,0.03652757641168561
439,0.03770066341353033
440,0.03909063560237983
441,0.0407251136739193
442,0.042638313455977066
443,0.044872650916040153
444,0.04748086284446354
445,0.050528828924134454
446,0.05409935918151016
447,0.05829732584579629
448,0.06325668934050654
449,0.06915022357591188
450,0.07620313028006329
451,0.08358776617086897
452,0.09233532368441905
453,0.10277539694323308
454,0.1153378553662226
455,0.13058777415788392
456,0.14927256233794525
457,0.17238364440946002
458,0.2012317271694713
459,0.2375234934059932
460,0.28339648100837955
461,0.3412921952432109
462,0.41338284314233964
463,0.5000001694743169
464,0.5964029982058142
465,0.6883931816828561
466,0.7514270258490168
467,0.7612270055477628
468,0.712600231634885
469,0.6244905319163289
470,0.5239037355658605
471,0.4298753294278883
472,0.35038921866707196
473,0.28640566969787673
474,0.23594950252875163
475,0.19636213945437583
476,0.16520361167236522
477,0.14049792566746097
478,0.12072552623135954
479,0.10474220324285988
480,0.0916916433404552
481,0.0809319515542784
482,0.07197919502644468
483,0.06446564799220104
484,0.05810939124484617
485,0.052692276704441404
486,0.048043929219997276
487,0.04403007306227024
488,0.04054395501325886
489,0.037499992581088055
490,0.03482903047042297
491,0.03247476775408402
492,0.030391043911579086
493,0.028539760096595493
494,0.026889274092791828
495,0.025413151377484806
496,0.02408918603706565
497,0.02289862775820215
498,0.021825567372711893
499,0.020856445275223966
500,0.01997965572474017
501,0.019262393159466516
502,0.018604191203367506
503,0.01799966812336339
504,0.01744407963322485
505,0.01693323390023856
506,0.016463419598997584
507,0.01603134480721114
508,0.01563408494807965
509,0.015269038311364249
510,0.014933887948432631
511,0.01462656894889961
512,0.014345240278553602
513,0.014088260498305392
514,0.013854166798352784
515,0.013641656875695265
516,0.013449573260560153
517,0.013276889761400044
518,0.013122699751419328
519,0.012986206064122631
520,0.012866712302782147
521,0.012763615400315136
522,0.012676399292928044
523,0.012604629593895484
524,0.012547949173733428
525,0.012506074570395438
526,0.012478793168483208
527,0.012465961100247645
528,0.012467501833746036
529,0.01248340542524225
530,0.012513728424101037
531,0.012558594429311884
532,0.01261819530766348
533,0.012692793094745728
534,0.01278272261167728
535,0.012888394843038657
536,0.01301030113528395
537,0.013149018290282422
538,0.013305214646057864
539,0.013479657256761523
540,0.013673220307068062
541,0.013886894923264812
542,0.01412180057523589
543,0.014379198301442193
544,0.01466050603425181
545,0.014967316357300826
546,0.015301417092108992
547,0.01566481519062171
548,0.01605976450709344
549,0.016488798141048342
550,0.016954766188417122
551,0.017490262089317175
552,0.01807021677206704
553,0.018698788576270605
554,0.019380676445490085
555,0.020121202989596392
556,0.02092641293077844
557,0.02180319022635444
558,0.022759397968866543
559,0.023804046194057994
560,0.0249474940486257
561,0.026201694473570725
562,0.02758049176854114
563,0.02909998528399213
564,0.03077897626715757
565,0.032639519873139636
566,0.034707610966855186
567,0.03701404116754739
568,0.03959547642929876
569,0.04249582042051484
570,0.045767950599182525
571,0.04947594329234659
572,0.053697944156190336
573,0.05852989496136661
574,0.06409040166245084
575,0.07052712807539178
576,0.07802523011052893
577,0.08681851025326816
578,0.09720416254535863
579,0.10956215521898582
580,0.12438034350448082
581,0.14228601460627388
582,0.16408300962648564
583,0.19078917724713435
584,0.22365809948827692
585,0.2641446988469396
586,0.3137248525239037
587,0.3733944036124575
588,0.44258071533126897
589,0.5172782214579665
590,0.58794713380556
591,0.6394691630552657
592,0.6564401823425277
593,0.6326320564405935
594,0.5757689910772805
595,0.5018593634560605
596,0.4257480435458826
597,0.3563676471985406
598,0.2971817110281215
599,0.24840138454985178
600,0.20882361957861673
601,0.17940936831829757
602,0.15517750311093415
603,0.1351397672124101
604,0.11848130045503752
605,0.1045464510368582
606,0.09281370454902856
607,0.08286995600683167
608,0.07438790587792543
609,0.06710750493182283
610,0.06082122882375722
611,0.055362590854825325
612,0.0505972526816144
613,0.04641616396954795
614,0.04273026485868067
615,0.03946638451305859
616,0.03656405330303671
617,0.03397301345722155
618,0.03165126509104138
619,0.029563524143648393
620,0.02767999864895613
621,0.025975412235153886
622,0.024428220623356756
623,0.023019979589100077
624,0.02173483242272945
625,0.0205590921693449
626,0.01948089943461436
627,0.018489940745794194
628,0.017577215681104878
629,0.016734843465394087
630,0.015955901654596177
631,0.01523429102950427
632,0.01456462199102345
633,0.013942118669879032
634,0.013362537690820216
635,0.012822099108099191
636,0.012317427488562889
637,0.011845501486472957
638,0.011403610549764562
639,0.01098931763601075
640,0.010600427009660246
641,0.010234956349358528
642,0.009891112522556231
643,0.009567270489833623
644,0.009261954887911227
645,0.008973823911740316
646,0.008701655175210004
647,0.008444333279139796
648,0.008200838856172961
649,0.007970238896412695
650,0.007751678186338193
651,0.007547641265608229
652,0.007353929593610685
653,0.007169895839574484
654,0.006994943262801545
655,0.006828521087309629
656,0.006670120361211314
657,0.006519270243882854
658,0.006375534671367959
659,0.006238509356806749
660,0.006107819088137672
661,0.005983115290025128
662,0.005864073821030415
663,0.005750392980561535
664,0.005641791703189196
665,0.005538007920568466
666,0.005438797073513977
667,0.005343930758790577
668,0.00525319549694161
669,0.005166391609016287
670,0.005083332191409504
671,0.005003842179212472
672,0.004927757489516914
673,0.004854924237034448
674,0.004785198015204392
675,0.00471844323668008
676,0.0046545325277187
677,0.004593346171561832
678,0.00453477159639355
679,0.004478702903906603
680,0.004425040434902207
681,0.004373690368701234
682,0.004324564353458571
683,0.0042775791647534775
684,0.004232656390079667
685,0.0041897221370842
686,0.004148706763605773
687,0.004109544627744682
688,0.004072173856359249
689,0.004036536130530531
690,0.00400257648666924
691,0.0039702431320579965
692,0.0039394872737300345
693,0.003910262959682637
694,0.003882526931512112
695,0.0038562384876368733
696,0.0038313593563481328
697,0.003807853577993185
698,0.003785687395656977
699,0.003764829153761723
700,0.0037452492040547284
701,0.0037270821641298725
702,0.0037100251889520207
703,0.003694056492386109
704,0.003679155694450392
705,0.003665303768932708
706,0.0036524829948472123
707,0.003640676911520634
708,0.003629870277114527
709,0.0036200490304067745
710,0.0036112002556706784
711,0.003603312150504691
712,0.0035963739964785593
713,0.0035903761324750007
714,0.003585309930617039
715,0.0035811677746827135
716,0.0035779430409190517
717,0.0035756300811773064
718,0.003574224208300853
719,0.0035737216837061305
720,0.0035741197071057895
721,0.00357541640833156
722,0.0035776108412223393
723,0.003580702979551137
724,0.003584693714972099
725,0.0035895848569764454
726,0.003595379134853831
727,0.0036020802016631217
728,0.0036096926402239393
729,0.0036182219711482387
730,0.0036276746629386996
731,0.00363805814418837
732,0.003649380817924464
733,0.003661652078147036
734,0.0036748823286221425
735,0.003689083003997648
736,0.0037042665933195345
737,0.003720446666035814
738,0.0037376379005858084
739,0.0037558561156830076
740,0.0037751183044114327
741,0.0037954426712673702
742,0.003816848672291607
743,0.003839357058450685
744,0.003862989922440994
745,0.0038877707491051993
746,0.003913724469667615
747,0.003940877520013817
748,0.00396925790325934
749,0.00399889525687417
750,0.004029820924653166
751,0.004062875679844117
752,0.004097293201555066
753,0.00413311094840033
754,0.004170368433332955
755,0.00420910732547886
756,0.004249371559141657
757,0.0042912074504960354
758,0.004334663822532927
759,0.004379792138869882
760,0.004426646647094652
761,0.0044752845323700954
762,0.004525766082094498
763,0.004578154862483761
764,0.004632517908021537
765,0.0046889259248115624
766,0.00474745350896248
767,0.0048081793812432385
768,0.004871186639364114
769,0.004936563029369512
770,0.00500440123777301
771,0.005074799206224961
772,0.005147860470680859
773,0.005223694527235604
774,0.005302417227008363
775,0.005384151202706753
776,0.005469026329771083
777,0.005557180225303403
778,0.005648758788324654
779,0.005743916785283244
780,0.005842818485162978
781,0.005945638349015047
782,0.0060525617792733825
783,0.006163785934815319
784,0.006279520618405417
785,0.006399989243926011
786,0.006525429891658786
787,0.006656096460858225
788,0.006792259929960757
789,0.006934209736028343
790,0.007082255286445682
791,0.0072367276175117155
792,0.007397981216409397
793,0.007566396025146308
794,0.0077423796474668394
795,0.00792636978249673
796,0.008118836912048542
797,0.008320287272159948
798,0.008531266143631214
799,0.008752361501173487
800,0.008984208066381021
801,0.00922439595480273
802,0.009476697929110081
803,0.009741918594776841
804,0.010020931340951087
805,0.010314685491339886
806,0.010624214336083706
807,0.010950644170414527
808,0.011295204486384562
809,0.011659239488195102
810,0.012044221130430435
811,0.012451763912739234
812,0.012883641705371665
813,0.013341806928897165
814,0.013828412470169858
815,0.014345836787365708
816,0.01489671274243908
817,0.015483960803055462
818,0.01611082738227634
819,0.01678092923842217
820,0.017498305046531944
821,0.01826747548540973
822,0.019093513471617033
823,0.019982126528268387
824,0.020939753720639213
825,0.02197368014633011
826,0.023092172666200513
827,0.024304641444148407
828,0.025621832982480296
829,0.027056061765424702
830,0.02862148944955297
831,0.03033446289043297
832,0.03221392533546488
833,0.034281919065610025
834,0.03656420293260926
835,0.03909101501647835
836,0.0418980195653645
837,0.045027489212153264
838,0.04852978918081895
839,0.05246525112748785
840,0.056906552160753354
841,0.061941751719985776
842,0.06767818816957902
843,0.07424750140075592
844,0.08181213043414402
845,0.09057373714390339
846,0.10078412401292985
847,0.11275932523037925
848,0.12689760034421288
849,0.14370191095205273
850,0.16380680060613861
851,0.1862079367057264
852,0.21295489209767876
853,0.2449837206229432
854,0.2833477780632653
855,0.3291127388547241
856,0.38310177182132493
857,0.4453814262495564
858,0.5143827871930503
859,0.5857145656869875
860,0.6512190464403853
861,0.6995647011488227
862,0.7196693165816579
863,0.7060430118137616
864,0.6620489358076799
865,0.5979361565106971
866,0.5255575627080162
867,0.45414470186158484
868,0.38902614866667157
869,0.3323396388237803
870,0.284271475183129
871,0.2440591076492573
872,0.21060462188892565
873,0.182788584768101
874,0.1596042524093067
875,0.140198635716109
876,0.12387086837088365
877,0.11005403250182239
878,0.09829282255304936
879,0.08822232222287985
880,0.07954975007768561
881,0.07203949912761644
882,0.06550118245233834
883,0.05978020630268131
884,0.05475038263359038
885,0.05030815147991687
886,0.04636805938194257
887,0.04285921240001002
888,0.03972248398533937
889,0.03690830788639778
890,0.034374925476056015
891,0.032086987189629865
892,0.030014430986263788
893,0.028131578467916776
894,0.026416402798115295
895,0.024849932866133788
896,0.023415766017446632
897,0.022099667708047815
898,0.02088924108395302
899,0.01977365307330451
900,0.018743406359405863
901,0.01775051465768178
902,0.016833804096386306
903,0.015985771781883797
904,0.015199807254440421
905,0.014470069186311045
906,0.01379138134086615
907,0.013159144457782664
908,0.012569261359705989
909,0.012018073077657085
910,0.011502304193782256
911,0.011019015922361264
912,0.010565565709949853
913,0.010139572346033753
914,0.009738885746726579
915,0.00936156071371323
916,0.009005834085059396
917,0.008670104788567327
918,0.008352916385953986
919,0.008052941760362671
920,0.007768969653056639
921,0.007499892799587556
922,0.007244697452864129
923,0.007002454111676928
924,0.006772309299397482
925,0.006553478259626649
926,0.006345238454210611
927,0.006146923764840814
928,0.005957919312879494
929,0.005777656823487072
930,0.005605610469890498
931,0.005441293141988373
932,0.005284253090656858
933,0.00513407090528206
934,0.004990356787356462
935,0.004852748087558729
936,0.004720907077705388
937,0.004594518932399379
938,0.004473289898188313
939,0.004356945630644308
940,0.00424522968204305
941,0.004137902124299422
942,0.0040347382935485045
943,0.0039355276442786455
944,0.0038400727022558654
945,0.0037481881066507
946,0.003659699732809973
947,0.0035744438880272907
948,0.0034922665734693163
949,0.003413022806126901
950,0.003336575995290636
951,0.0032616673061601122
952,0.0031893637371887
953,0.003119547265525039
954,0.0030521064385740926
955,0.002986935941848816
956,0.002923936199516577
957,0.0028630130048509133
958,0.002804077178063474
959,0.002747044249228013
960,0.0026918341642204967
961,0.002638371011790515
962,0.002586582770050338
963,0.002536401070822733
964,0.002487760980427612
965,0.0024406007956129802
966,0.002394861853449267
967,0.002350488354108178
968,0.0023074271955401725
969,0.002265627819148382
970,0.0022250420656329444
971,0.0021856240402487914
972,0.0021473299867824465
973,0.002110118169610562
974,0.002073948763254649
975,0.002038783748893657
976,0.002004586817339146
977,0.001971323278016947
978,0.0019389599735351007
979,0.0019074651994506091
980,0.001876808628877271
981,0.001846961241604579
982,0.0018178952574223967
983,0.0017895840733694077
984,0.0017620022046440933
985,0.00173512522893672
986,0.0017089297339581899
987,0.001683393267958261
988,0.0016584942930404417
989,0.0016342121410948722
990,0.0016105269721829784
991,0.0015874197352198217
992,0.001564872130810396
993,0.001542866576106537
994,0.0015213861715601099
995,0.0015004146694566527
996,0.0014799364441216338
997,0.0014599364636987528
998,0.0014404002634063264
999,0.001421313920184214
1000,0.0014026640286494694
