Wavelength (nm),Responsivity
400,0.029447279761320704
401,0.03066831082179306
402,0.03198108142688063
403,0.03338418347092671
404,0.03487437816313347
405,0.0364461594984591
406,0.0380913076920574
407,0.0397984667458912
408,0.04155279342194941
409,0.04333573723196216
410,0.0451250195783897
411,0.04689488093245642
412,0.04861665369286195
413,0.050259691912889516
414,0.05179264688861874
415,0.05318502347066284
416,0.05440889476627295
417,0.055440605549377436
418,0.05626227100203423
419,0.05686288747088311
420,0.05723891778503071
421,0.05739428739190705
422,0.05733981292851463
423,0.05709216248736717
424,0.05667250047422962
425,0.056104991140757454
426,0.05541532444434025
427,0.054629394030043396
428,0.05377221150299889
429,0.05286709493265988
430,0.05193513073986996
431,0.05099488077420131
432,0.050062290979125026
433,0.04915075273647059
434,0.04827126991340715
435,0.04743269088154624
436,0.046641972921794644
437,0.04590445476534269
438,0.045224120528837286
439,0.04460384449865554
440,0.04404561099254424
441,0.043550706981425824
442,0.043119887498560105
443,0.04275351533558244
444,0.042451677350021255
445,0.042214280078004006
446,0.04204112741070599
447,0.0419319829676283
448,0.041886619565697406
449,0.041904857896395295
450,0.041986596220134995
451,0.04233700640763996
452,0.04272562596078251
453,0.04315345584529334
454,0.043621567020724034
455,0.044131107304863505
456,0.04468330788502343
457,0.045279489546182924
458,0.04592106867289586
459,0.04660956306913845
460,0.047346597627725806
461,0.048133909868343816
462,0.04897335535040033
463,0.049866912953526285
464,0.050816690004395655
465,0.05182492721325996
466,0.0528940033669178
467,0.054026439706401044
468,0.055224903897123985
469,0.0564922134762189
470,0.05783133863590946
471,0.05924540417264589
472,0.06073769039897066
473,0.062311632778340044
474,0.06397082000206811
475,0.06571899018193944
476,0.06756002478171845
477,0.06949793985578002
478,0.07153687410365242
479,0.07368107318593768
480,0.0759348696808432
481,0.07830265799287386
482,0.08078886345830466
483,0.08339790482884851
484,0.08613414925952606
485,0.08900185888435046
486,0.09200512804082824
487,0.09514781020967045
488,0.09843343377967831
489,0.10186510584136327
490,0.10544540337015015
491,0.1091762513962134
492,0.11305878808915872
493,0.1170932171281224
494,0.12127864829623625
495,0.12561292794446685
496,0.1300924618194534
497,0.13471203374021853
498,0.13946462472404314
499,0.14434123837061014
500,0.14933073956367013
501,0.1525000119626853
502,0.1557035044685479
503,0.15891807837578353
504,0.16211714103172842
505,0.165270598487795
506,0.1683449300152262
507,0.17130341373606592
508,0.17410653045165514
509,0.17671256715696482
510,0.17907843210738936
511,0.1811606794405756
512,0.18291672363598
513,0.1843062036806264
514,0.1852924357041763
515,0.1858438737865237
516,0.18593548477109645
517,0.18554993725703647
518,0.18467850973370084
519,0.1833216388937232
520,0.18148905552557187
521,0.17919948918791367
522,0.17647995978742823
523,0.17336470921879135
524,0.169893854673828
525,0.16611186358461172
526,0.1620659567451735
527,0.15780454125228666
528,0.15337576051674806
529,0.1488262278320086
530,0.14419998634443934
531,0.1395377149757253
532,0.13487617939681465
533,0.13024791109041273
534,0.12568108647463253
535,0.1211995718357409
536,0.11682309775265107
537,0.11256752783855575
538,0.10844518996339972
539,0.10446524272800974
540,0.10063405507826506
541,0.09695558201563653
542,0.09343172400921351
543,0.09006266173656576
544,0.08684716109349706
545,0.0837828460200555
546,0.08086643865066981
547,0.07809396769738954
548,0.07546094691471202
549,0.07296252606838552
550,0.0705936171259637
551,0.06801390923746854
552,0.06559737654918397
553,0.06333338689797784
554,0.06121200526102861
555,0.059223970073915236
556,0.05736066452730859
557,0.055614084740851694
558,0.05397680625922835
559,0.052441949955019586
560,0.05100314813876239
561,0.04965451145425918
562,0.04839059696452125
563,0.04720637770083951
564,0.04609721384615499
565,0.04505882564753272
566,0.044087268095782756
567,0.043178907368819616
568,0.042330399005806194
569,0.0415386677587718
570,0.04080088905508204
571,0.0401144719962043
572,0.03947704381432553
573,0.03888643570753053
574,0.03834066997564216
575,0.03783794838185505
576,0.03737664166950681
577,0.03695528016837441
578,0.0365725454305075
579,0.0362272628416349
580,0.03591839516047281
581,0.03564503694475622
582,0.035406409829445644
583,0.035201858629339666
584,0.03503084824523498
585,0.03489296135987459
586,0.034787896917245695
587,0.0347154693864075
588,0.0346756088190359
589,0.034668361718357264
590,0.03469389274625018
591,0.03475248730514972
592,0.03484455504217657
593,0.03497063433482471
594,0.035131397830815536
595,0.03532765912963429
596,0.03556038071012414
597,0.035830683227718416
598,0.03613985632687587
599,0.036489371139595383
600,0.036880894670156
601,0.03727770104444768
602,0.03771247273692924
603,0.038186906361229386
604,0.03870287971440141
605,0.03926246754524297
606,0.03986795932337359
607,0.04052187926190884
608,0.04122700888454087
609,0.04198641247172609
610,0.04280346577145189
611,0.043681888418851476
612,0.04462578057707153
613,0.04563966439078225
614,0.046728530935261886
615,0.04789789345008249
616,0.049153847769212056
617,0.05050314100127931
618,0.05195324967738527
619,0.05351246877186425
620,0.0551900132163869
621,0.056996133771978805
622,0.05894224939827254
623,0.06104109856446885
624,0.06330691227907397
625,0.06575561196814006
626,0.06840503568973562
627,0.07127519650971817
628,0.07438857713696397
629,0.0777704650545901
630,0.0814493322763073
631,0.08545726333162501
632,0.08983043387677607
633,0.09460964004136961
634,0.09984087465677277
635,0.10557593998506745
636,0.11187307617605348
637,0.11879756853788057
638,0.1264222721221987
639,0.13482795533810565
640,0.14410331023270093
641,0.15434439914507322
642,0.1656531978408968
643,0.17813474603930926
644,0.19189222247381044
645,0.20701902798571808
646,0.22358671409005407
647,0.2416274088875462
648,0.2611094197510363
649,0.28190520604983904
650,0.3037523319947817
651,0.325153333560003
652,0.346203423781083
653,0.36601710573013246
654,0.3835370956429546
655,0.39761944996469045
656,0.4071722556942581
657,0.411328349457978
658,0.4096099158058163
659,0.40203275683663137
660,0.389111805915508
661,0.3717642117497027
662,0.35114369091309816
663,0.3284591738486046
664,0.3048247502516516
665,0.28116555145855904
666,0.2581806021491601
667,0.23634889100462686
668,0.2159606037891437
669,0.1971581017960643
670,0.17997645365745915
671,0.16437825925250701
672,0.15028099461165828
673,0.13757710759807998
674,0.12614799480965902
675,0.11587322618480929
676,0.1066362857498795
677,0.09832787028162708
678,0.09084754155161068
679,0.084104310672421
680,0.07801655996735167
681,0.07251157796200258
682,0.06752488965020523
683,0.06299949892867038
684,0.05888511561391679
685,0.05513740977855338
686,0.0517173167582842
687,0.04859040381041203
688,0.04572630173708016
689,0.04309820022251978
690,0.0406824030841162
691,0.038457938370139104
692,0.036406217766547726
693,0.034510739782541516
694,0.032756831463226735
695,0.031131423796527915
696,0.029622856458577977
697,0.0282207080278034
698,0.02691564826437218
699,0.025699309483462697
700,0.024564174441168773
701,0.023581045487479406
702,0.022657581059138877
703,0.02178923071311377
704,0.020971858195334106
705,0.020201698240742715
706,0.01947531839301502
707,0.018789585209125968
708,0.01814163429948973
709,0.017528843727932848
710,0.016948810358997705
711,0.016399328794473055
712,0.01587837258788497
713,0.015384077466040277
714,0.014914726321521604
715,0.014468735770087445
716,0.014044644092910272
717,0.013641100406067846
718,0.013256854919184668
719,0.012890750162023767
720,0.012541713072513326
721,0.012208747852467089
722,0.01189092950838451
723,0.011587398004423512
724,0.011297352963115365
725,0.011020048856807078
726,0.010754790639309605
727,0.010500929772926163
728,0.01025786061103524
729,0.01002501710080194
730,0.009801869774461526
731,0.009587923001034471
732,0.009382712473345007
733,0.009185802907879112
734,0.008996785937374779
735,0.008815278178127122
736,0.008640919455843308
737,0.008473371175528783
738,0.008312314822350335
739,0.008157450581725042
740,0.008008496068045393
741,0.00786518515248942
742,0.007727266881289041
743,0.0075945044766600675
744,0.007466674413338741
745,0.007343565564334386
746,0.007224978410104922
747,0.007110724305897962
748,0.007000624802481939
749,0.006894511015925962
750,0.006792223042477305
751,0.006697822210742364
752,0.006606805738842456
753,0.0065190453072598315
754,0.006434419192944305
755,0.00635281188936564
756,0.006274113752294
757,0.006198220669375863
758,0.0061250337517353304
759,0.0060544590459770346
760,0.005986407265101656
761,0.005920793536965837
762,0.005857537169029953
763,0.005796561428237931
764,0.005737793334965895
765,0.0056811634700604605
766,0.0056266057940647304
767,0.005574057477800787
768,0.005523458743541253
769,0.005474752716062691
770,0.0054278852829268585
771,0.005382804963386396
772,0.005339462785356663
773,0.005297812169937948
774,0.0052578088230104915
775,0.005219410633460814
776,0.005182577577630372
777,0.005147271629607842
778,0.005113456677014546
779,0.0050810984419580015
780,0.005050164406852696
781,0.005020623744829375
782,0.004992447254474194
783,0.004965607298658879
784,0.004940077747239697
785,0.0049158339234205185
786,0.004892852553589755
787,0.004871111720455564
788,0.004850590819317005
789,0.004831270517321266
790,0.004813132715568729
791,0.004796160513938613
792,0.00478033817851815
793,0.004765651111528087
794,0.004752085823646406
795,0.0047396299086407
796,0.004728272020228079
797,0.004718001851089218
798,0.004708810113970427
799,0.004700688524815301
800,0.004693629787873823
801,0.0046916778328590465
802,0.004690739815839119
803,0.004690814061993514
804,0.004691899783547753
805,0.004693997078225095
806,0.004697106929344226
807,0.004701231207563656
808,0.004706372674279696
809,0.004712534986689492
810,0.00471972270453625
811,0.004727941298559099
812,0.0047371971606755756
813,0.004747497615930345
814,0.004758850936249837
815,0.004771266356047928
816,0.0047847540897350835
817,0.00479932535118861
818,0.004814992375249807
819,0.0048317684413199
820,0.004849667899135006
821,0.004868706196807489
822,0.004888899911230584
823,0.0049102667809508786
824,0.004932825741623564
825,0.004956596964175393
826,0.004981601895810613
827,0.005007863304006878
828,0.005035405323661077
829,0.005064253507557099
830,0.00509443488034289
831,0.005125977996218824
832,0.005158913000555947
833,0.005193271695680872
834,0.005229087611082473
835,0.005266396078317388
836,0.005305234310912519
837,0.005345641489588086
838,0.005387658853150653
839,0.005431329795434196
840,0.0054766999686981675
841,0.005523817393926295
842,0.0055727325785047115
843,0.005623498641800445
844,0.005676171449202835
845,0.005730809755239588
846,0.005787475356430361
847,0.005846233254598192
848,0.005907151831421023
849,0.005970303035073836
850,0.006035762579886542
851,0.006097052558076572
852,0.0061604452849928
853,0.00622600925574872
854,0.006293816365937622
855,0.006363942097822652
856,0.006436465719091224
857,0.006511470495126876
858,0.006589043915832952
859,0.006669277938133926
860,0.0067522692453787
861,0.006838119524980399
862,0.006926935765745757
863,0.007018830576479913
864,0.007113922527597575
865,0.00721233651763045
866,0.007314204166699199
867,0.007419664239209979
868,0.007528863098254048
869,0.0076419551944239
870,0.007759103592024798
871,0.007880480535950807
872,0.008006268062819465
873,0.008136658660316832
874,0.008271855979105736
875,0.008412075602092395
876,0.008557545876342474
877,0.008708508813487965
878,0.008865221065082547
879,0.00902795498004883
880,0.009196999752131795
881,0.009372662666130321
882,0.009555270452647036
883,0.009745170762175279
884,0.00994273377056116
885,0.010148353929245225
886,0.010362451875228358
887,0.010585476517444327
888,0.010817907318181079
889,0.01106025679040916
890,0.01131307323438305
891,0.011576943739722685
892,0.011852497482405418
893,0.012140409349760017
894,0.012441403930720213
895,0.012756259913334247
896,0.013085814936939383
897,0.013430970952580418
898,0.013792700152311014
899,0.014172051536095322
900,0.014570158194285547
901,0.015025047827074499
902,0.015505045591763925
903,0.016011990861075173
904,0.016547893066601725
905,0.017114950541780312
906,0.017715571787074395
907,0.018352399508670895
908,0.019028337837984216
909,0.019746583204750943
910,0.02051065941314474
911,0.021324457560031963
912,0.02219228153938997
913,0.023118899999531616
914,0.024109605762839936
915,0.025170283884254473
916,0.02630748971791533
917,0.027528538584293126
918,0.028841608885581214
919,0.030255860806912657
920,0.03178157306510733
921,0.03343030052174929
922,0.03521505585447525
923,0.03715051886105396
924,0.03925327732194222
925,0.04154210361163465
926,0.04403827133376882
927,0.046765916009232744
928,0.049752443033452554
929,0.053028984369894755
930,0.0566309021950622
931,0.06059833209537037
932,0.06497674914598404
933,0.06981752536338097
934,0.07517842383395759
935,0.08112393932817236
936,0.08772534199080978
937,0.09506020270567953
938,0.10321106762918464
939,0.11226279708527698
940,0.1222978868053419
941,0.13338885711884324
942,0.14558656883459692
943,0.15890320445012318
944,0.1732888436677908
945,0.1886014094082583
946,0.20457174511709483
947,0.22076915864515606
948,0.23657788983701655
949,0.2512002576113364
950,0.2637042097483104
951,0.27309771848177333
952,0.2786307514341889
953,0.27975821974849574
954,0.2763332213459595
955,0.26864384809618946
956,0.25735007780732483
957,0.24334577053612955
958,0.22759635078631626
959,0.21100075083924863
960,0.194304338089189
961,0.1780649232502428
962,0.16265852848175844
963,0.14830741611794457
964,0.13511588657208354
965,0.12310473101200917
966,0.1122400074158647
967,0.10245498802849998
968,0.09366580809095794
969,0.08578200473431963
970,0.0787132255569286
971,0.07237322207397068
972,0.06668200228994542
973,0.06156678447919871
974,0.05696220282090543
975,0.05281007027823735
976,0.049058899498506794
977,0.04566330985475441
978,0.04258339966348391
979,0.03978413021346735
980,0.03723474731816788
981,0.03490825290669604
982,0.032780931076779006
983,0.030831928261907844
984,0.029042884515942093
985,0.027397611600155237
986,0.02588181305287133
987,0.02448284139712204
988,0.023189487885148168
989,0.021991800557555785
990,0.020880926828588563
991,0.019848977249453864
992,0.01888890752202347
993,0.017994416221839525
994,0.017159856036368368
995,0.016380156630917513
996,0.015650757522196343
997,0.014967549571241613
998,0.014326823906983829
999,0.013725227262885326
1000,0.013159722855460982
