Wavelength,Responsivity
400,0.033250270123590955
401,0.03477114265231344
402,0.03636580917894826
403,0.03802353224522432
404,0.039730114489627974
405,0.04146764981199734
406,0.04321446826960158
407,0.044945346721222086
408,0.046632047421133506
409,0.04824422117666031
410,0.04975066929578317
411,0.051120902831451
412,0.05232687749885605
413,0.053344731593352734
414,0.05415632711338786
415,0.05475040234882436
416,0.05512319026964579
417,0.0552784332186496
418,0.05522681367988087
419,0.05498490259131414
420,0.05457378326163875
421,0.054017531279446765
422,0.0533417197178178
423,0.05257208321190526
424,0.051733426585094736
425,0.05084881548281556
426,0.04993904637301274
427,0.04902236537761283
428,0.048114390054832326
429,0.047228183392274234
430,0.04637443180058961
431,0.04556168572567881
432,0.044796630112574065
433,0.0440843606184055
434,0.04342864917068458
435,0.04283218874625599
436,0.042296812025871114
437,0.0418236819941096
438,0.04141345483632002
439,0.041066416887591384
440,0.04078259814817598
441,0.04056186519169201
442,0.04040399631047361
443,0.040308741580544316
444,0.0402758702674485
445,0.0403052076879955
446,0.04039666332671373
447,0.04055025170034028
448,0.04076610718022172
449,0.04104449372594859
450,0.04138581025477718
451,0.041929448433654995
452,0.042514990196788435
453,0.04314376639086512
454,0.04381720196851893
455,0.04453682063181469
456,0.04530424928436558
457,0.0461212222861339
458,0.04698958549114028
459,0.04791130003368285
460,0.048888445812962436
461,0.049923224608930325
462,0.05101796274344429
463,0.052175113180117215
464,0.05339725693330043
465,0.05468710363114737
466,0.056047491049416656
467,0.0574813834013298
468,0.05899186813426478
469,0.06058215094620603
470,0.062255548693748636
471,0.0640154798192361
472,0.06586545187770525
473,0.06780904569543203
474,0.06984989564206442
475,0.07199166544913178
476,0.07423801896125697
477,0.0765925851654635
478,0.07905891681223516
479,0.08164044192404799
480,0.08434040748870039
481,0.08716181466278061
482,0.09010734487322924
483,0.0931792763114817
484,0.0963793904755671
485,0.09970886864187059
486,0.10316817845140414
487,0.1067569511859288
488,0.1104738507960075
489,0.11431643633135213
490,0.11828102011370056
491,0.1223625247762994
492,0.12655434315393455
493,0.13084820591275304
494,0.1352340627140876
495,0.13969998354892973
496,0.14423208758067158
497,0.14881450729968052
498,0.1534293959203524
499,0.15805698563346238
500,0.16267570346635826
501,0.16524477705656299
502,0.1676902411299424
503,0.1699785870639103
504,0.17207508836508734
505,0.17394450839119108
506,0.17555194590385492
507,0.17686379657924334
508,0.17784879526480468
509,0.17847909096201922
510,0.17873129596925383
511,0.17858744414520608
512,0.17803579241952316
513,0.17707140546252156
514,0.1756964759291733
515,0.17392035097994685
516,0.17175925793938523
517,0.16923574536078817
518,0.1663778775349058
519,0.16321823797337126
520,0.1597928086847525
521,0.1561397962233366
522,0.15229847269508637
523,0.1483080912614562
524,0.14420692293719253
525,0.14003144664102357
526,0.13581570944292332
527,0.1315908603136007
528,0.12738484947360007
529,0.1232222771853736
530,0.1191243705942332
531,0.1151090647215291
532,0.11119116345434674
533,0.1073825577815839
534,0.10369248102520406
535,0.1001277839059313
536,0.09669321556437482
537,0.09339169984068157
538,0.09022459900899868
539,0.08719195966297467
540,0.08429273751573763
541,0.081524999518501
542,0.07888610295111441
543,0.07637285204603945
544,0.0739816333308981
545,0.07170853126967397
546,0.06954942600019529
547,0.06750007505027869
548,0.06555618090422785
549,0.06371344621536208
550,0.06196761834246396
551,0.060064083452794764
552,0.058278578118632865
553,0.05660380548466473
554,0.05503298713290576
555,0.05355983373602476
556,0.05217851585615061
557,0.0508836353769999
558,0.04967019791629511
559,0.04853358645616011
560,0.04746953634517807
561,0.04647411176192942
562,0.04554368368187421
563,0.044674909354063166
564,0.043864713268612736
565,0.04311026957800373
566,0.04240898592334466
567,0.04175848860940069
568,0.04115660906836893
569,0.040601371551232605
570,0.0400909819863971
571,0.03962381794770062
572,0.039198419677414414
573,0.03881348211421105
574,0.03846784788108005
575,0.038160501193643705
576,0.03789056265518582
577,0.03765728491087832
578,0.03746004914015354
579,0.03729836237292353
580,0.037171855622411244
581,0.037080282834788814
582,0.037023520663667125
583,0.03700156908585778
584,0.03701455288381768
585,0.037062724029942415
586,0.03714646501854199
587,0.03726629320309226
588,0.037422866209445224
589,0.03761698851033133
590,0.03784961926302416
591,0.03812188153079756
592,0.038435073030226946
593,0.038790678570944065
594,0.03919038438276755
595,0.03963609455787345
596,0.040129949873691034
597,0.04067434930650755
598,0.04127197459752959
599,0.041925818293803006
600,0.042639215757667714
601,0.043345771780026875
602,0.044107590929976556
603,0.044927986355765205
604,0.04581060678711607
605,0.04675947122420048
606,0.04777900808677149
607,0.04887409943443442
608,0.050050130960023406
609,0.051313048562444584
610,0.05266942242474585
611,0.05412651965927377
612,0.05569238673612205
613,0.057375943084881545
614,0.05918708745358427
615,0.06113681882214387
616,0.06323737389813264
617,0.0655023834649581
618,0.06794705009627594
619,0.0705883499783965
620,0.07344526176614866
621,0.07653902549236186
622,0.07989343448746485
623,0.08353516293823653
624,0.08749413096489089
625,0.09180390768745963
626,0.09650215033779531
627,0.10163107354361678
628,0.10723793672880463
629,0.11337552808330131
630,0.12010260926294909
631,0.12748426380877867
632,0.1355920614121207
633,0.14450390591207973
634,0.1543033727340637
635,0.16507825623701855
636,0.17691793446205298
637,0.18990901625445544
638,0.20412856961319376
639,0.2196340631052363
640,0.23644903855047128
641,0.2545435801338424
642,0.2738090366945417
643,0.2940274624435737
644,0.3148381893236746
645,0.33570705302826254
646,0.3559078483708242
647,0.3745294256210919
648,0.3905229419212958
649,0.4027986724783198
650,0.41036804107971026
651,0.41088685966547744
652,0.4057849776507212
653,0.39535392921643314
654,0.38029516525313406
655,0.3615956384619936
656,0.34036871294008963
657,0.3177045658286475
658,0.29456078688941456
659,0.271703609505175
660,0.24969373843215215
661,0.2289027030536921
662,0.20954503975219507
663,0.19171500351825838
664,0.17542088444254023
665,0.1606136664502554
666,0.147209195109266
667,0.13510434320419246
668,0.12418821378549999
669,0.11434952253853808
670,0.10548118571049386
671,0.09748294627199902
672,0.0902626723720166
673,0.0837367899973119
674,0.0778301751332914
675,0.07247572807872149
676,0.06761377829647786
677,0.06319141593428716
678,0.05916181022323068
679,0.05548355075551831
680,0.052120031657395566
681,0.04903888834777259
682,0.04621149008362913
683,0.0436124875644185
684,0.04121941262181285
685,0.03901232586161413
686,0.036973507650675426
687,0.03508718778698984
688,0.03333930938108735
689,0.031717322798667145
690,0.0302100058965144
691,0.028807307182036293
692,0.0275002089150563
693,0.026280607534258402
694,0.025141209122759092
695,0.024075437925118046
696,0.023077356191952964
697,0.022141593859962557
698,0.021263286777214917
699,0.020438022358983267
700,0.019661791711182233
701,0.018986640950178844
702,0.018348066526735096
703,0.017743575235913942
704,0.017170878384745153
705,0.016627872438652287
706,0.016112621725796042
707,0.015623342958667477
708,0.015158391362678988
709,0.014716248227824054
710,0.014295509722292989
711,0.013894876826725548
712,0.013513146264974728
713,0.01314920232221112
714,0.012802009454219438
715,0.012470605603092419
716,0.012154096144442248
717,0.011851648399914379
718,0.011562486656374913
719,0.011285887639791993
720,0.011021176397665707
721,0.010767722548990288
722,0.010524936865242734
723,0.010292268149868226
724,0.010069200387238906
725,0.009855250135159973
726,0.009649964137736002
727,0.00945291713783638
728,0.009263709870547912
729,0.009081967220912673
730,0.00890733653094345
731,0.008739486042419668
732,0.008578103463309752
733,0.00842289464686518
734,0.008273582373500708
735,0.00812990522653267
736,0.007991616553701985
737,0.00785848350717545
738,0.00773028615540599
739,0.007606816660849457
740,0.007487878518089242
741,0.007373285847419588
742,0.007262862739385872
743,0.007156442646185698
744,0.00705386781619885
745,0.0069549887682440305
746,0.0068596638024573595
747,0.0067677585449579985
748,0.006679145523708994
749,0.006593703773203466
750,0.006511318465805927
751,0.006435836943297737
752,0.006363080000277594
753,0.00629295535071953
754,0.0062253752922282355
755,0.006160256462940468
756,0.006097519614084262
757,0.006037089397098634
758,0.005978894164304022
759,0.00592286578219234
760,0.005868939456479405
761,0.005817053568128047
762,0.005767149519611996
763,0.005719171590746331
764,0.005673066803461848
765,0.005628784794947763
766,0.005586277698630728
767,0.005545500032498444
768,0.00550640859431212
769,0.005468962363287085
770,0.0054331224078512635
771,0.005398851799120856
772,0.0053661155297588265
773,0.005334880437906996
774,0.005305115135905069
775,0.005276789943531622
776,0.0052498768255216524
777,0.005224349333133447
778,0.005200182549555246
779,0.005177353038957451
780,0.0051558387990114675
781,0.005135619216710133
782,0.00511667502733743
783,0.00509898827644811
784,0.005082542284728349
785,0.005067321615620587
786,0.0050533120456050604
787,0.005040500537040624
788,0.005028875213476666
789,0.005018425337356745
790,0.005009141290042865
791,0.00500101455409748
792,0.004994037697767924
793,0.004988204361625654
794,0.004983509247319945
795,0.004979948108412393
796,0.004977517743266172
797,0.004976215989970249
798,0.004976041723285573
799,0.004976994853607443
800,0.004979076327944268
801,0.0049864692042337795
802,0.004994971012294664
803,0.005004588446806034
804,0.0050153292233314755
805,0.005027202093047422
806,0.005040216859529113
807,0.005054384397649995
808,0.005069716674659382
809,0.005086226773509596
810,0.0051039289185125965
811,0.005122838503414354
812,0.005142972121984301
813,0.005164347601226356
814,0.005186984037328758
815,0.005210901834479486
816,0.0052361227466869355
817,0.005262669922756013
818,0.005290567954584344
819,0.005319842928955921
820,0.005350522483025554
821,0.005382635863702333
822,0.005416213991159075
823,0.0054512895267117695
824,0.005487896945334262
825,0.00552607261309472
826,0.005565854869823747
827,0.005607284117349449
828,0.005650402913662772
829,0.005695256073405472
830,0.005741890775106261
831,0.005790356675625561
832,0.005840706032307528
833,0.00589299383338057
834,0.005947277937191705
835,0.00600361922091164
836,0.006062081739399891
837,0.006122732894979936
838,0.006185643618938745
839,0.006250888565635725
840,0.0063185463201846735
841,0.0063886996207575646
842,0.006461435596651738
843,0.006536846023367062
844,0.0066150275960506
845,0.006696082222793169
846,0.006780117339397615
847,0.006867246247392055
848,0.00695758847722705
849,0.007051270178781495
850,0.007148424541505804
851,0.007240064188493491
852,0.007334903418222471
853,0.007433064805761878
854,0.0075346774787944555
855,0.007639877524150988
856,0.007748808424529328
857,0.007861621527953546
858,0.007978476552771802
859,0.008099542131264736
860,0.008224996395234645
861,0.008355027607281202
862,0.008489834841837117
863,0.008629628720449777
864,0.00877463220625151
865,0.008925081463069239
866,0.009081226785193715
867,0.00924333360445806
868,0.009411683581986286
869,0.009586575792759278
870,0.00976832801203319
871,0.009957278113634959
872,0.010153785591273699
873,0.01035823321525435
874,0.010571028838387566
875,0.010792607366469292
876,0.011023432910488965
877,0.011264001139735073
878,0.0115148418572441
879,0.011776521821607294
880,0.012049647842067624
881,0.01233487017714046
882,0.012632886270746437
883,0.012944444864109981
884,0.013270350526534993
885,0.013611468653704727
886,0.013968730988470398
887,0.014343141726313999
888,0.014735784275928802
889,0.015147828754822621
890,0.015580540310698837
891,0.01603528837182594
892,0.016513556943926522
893,0.017016956087587097
894,0.017547234729167596
895,0.018106294980055095
896,0.018696208164343676
897,0.019319232784143252
898,0.01997783468536474
899,0.020674709725686764
900,0.021412809291315456
901,0.022262647622048996
902,0.02316897020175832
903,0.02413676405556096
904,0.025171564074744773
905,0.026279524013663944
906,0.02746749788363256
907,0.0287431333842411
908,0.030114979270870274
909,0.031592608848209615
910,0.03318676210216758
911,0.03490950933145437
912,0.03677443950360508
913,0.03879687691600066
914,0.040994130051215445
915,0.04338577671235549
916,0.045993989501557836
917,0.04884390529482606
918,0.051964041305314346
919,0.05538675820851567
920,0.05914876700694327
921,0.06329166990441273
922,0.06786251504948725
923,0.07291432855179888
924,0.07850656173287052
925,0.08470535302011972
926,0.09158344666481454
927,0.09921952750908322
928,0.10769661435522623
929,0.117098997135997
930,0.12750700394665523
931,0.1389886580188233
932,0.15158708175960392
933,0.16530244046968545
934,0.18006751370799223
935,0.19571699705601509
936,0.21195283880167437
937,0.2283116792334144
938,0.24414555665495563
939,0.25863182211465613
940,0.27082895156371734
941,0.279786726696191
942,0.2846996268274383
943,0.2850667768897279
944,0.28080548670704036
945,0.2722739787296721
946,0.2601932485100464
947,0.24549884611128536
948,0.22917577694811814
949,0.21212387490663148
950,0.19507713420805356
951,0.1787514169642302
952,0.16331163095786816
953,0.14895812862478722
954,0.13577980247458993
955,0.12378741293666627
956,0.11294100272073897
957,0.10317060998761451
958,0.09439094275629945
959,0.08651121202748437
960,0.07944136000214606
961,0.07309574307547245
962,0.06739509353718193
963,0.06226736254712365
964,0.057647866407556383
965,0.05347902186095469
966,0.04970985820798352
967,0.04629542606982358
968,0.043196176689223265
969,0.04037735532552799
970,0.037808432687742345
971,0.03546258596602025
972,0.03331623342278066
973,0.031348622021434736
974,0.02954146508309424
975,0.027878625727257154
976,0.026345841385746
977,0.02493048466618212
978,0.023621356082070756
979,0.022408504535775732
980,0.021283071861570937
981,0.02023715816305846
982,0.019263705086940114
983,0.018356394550252394
984,0.0175095607751882
985,0.016718113783539847
986,0.015977472763175488
987,0.015283507944701662
988,0.01463248982108594
989,0.014021044710098563
990,0.01344611580249618
991,0.012904928961145586
992,0.012394962640649314
993,0.01191392138609643
994,0.011459712445527827
995,0.011030425095532403
996,0.010624312334738015
997,0.010239774647245006
998,0.009875345578489663
999,0.009529678900643948
1000,0.0092015371743268
