Wavelength,Responsivity
400,0.0025617840400189136
401,0.0027120622419644653
402,0.0028889556499788506
403,0.0031641009531147186
404,0.0034686102260606004
405,0.003749636662984387
406,0.004019728519433559
407,0.004381138375698748
408,0.004641381322470691
409,0.004923423640040561
410,0.005179510549290774
411,0.0053975975581801285
412,0.0055628215690351835
413,0.005679577133157129
414,0.005866867293931627
415,0.006081861706116978
416,0.0061879394233436726
417,0.0062583534517738
418,0.006301482516773125
419,0.0063106386316638605
420,0.006300041124970001
421,0.006271658650843412
422,0.006219781651073833
423,0.006156299432200782
424,0.006083986075132109
425,0.006005459431203013
426,0.005808182391250223
427,0.005669371603936375
428,0.005532556438683324
429,0.0053054921201110584
430,0.0051223869550266485
431,0.004962211242317864
432,0.004910502660628475
433,0.004863630217731872
434,0.0048221203426328
435,0.00491677358963575
436,0.0050028389620107696
437,0.005013649835891639
438,0.005009102838502921
439,0.005021926916968237
440,0.005062969903679924
441,0.005075944512445137
442,0.005096539805764211
443,0.005132991676983965
444,0.005184174929810049
445,0.005192798544660801
446,0.005209257697808654
447,0.005334606842883344
448,0.00548108492638451
449,0.005627736254059428
450,0.005774938070701587
451,0.00592814441426492
452,0.00607214920898345
453,0.006220812447443501
454,0.006377327811478381
455,0.006590347281253581
456,0.006822685954499863
457,0.007079450272737952
458,0.00729002610696036
459,0.007501397788302593
460,0.00770128256486012
461,0.007912310171112793
462,0.008132252765978263
463,0.008340786410315429
464,0.008560835152460783
465,0.00879292661054302
466,0.009022508821756505
467,0.009203795919159171
468,0.00940050618788115
469,0.00961640834517356
470,0.009863438450235388
471,0.010150125884142332
472,0.01045147285825934
473,0.010768075846902935
474,0.01110054105965065
475,0.011397031957166596
476,0.011669463798277574
477,0.01198390428624072
478,0.01230795910886984
479,0.012637254231508748
480,0.01298179609843051
481,0.013340037693859063
482,0.013701847882757863
483,0.014067039315278466
484,0.014427001191128858
485,0.014828518512929099
486,0.015286245457283174
487,0.01587230682006848
488,0.01648122745116026
489,0.017112847185978993
490,0.017768653081073896
491,0.018462574618497735
492,0.01917878492540017
493,0.019916262406025922
494,0.020673692169719166
495,0.02145846015554123
496,0.022475912623839217
497,0.023630244483348908
498,0.024734748744718253
499,0.025851259050017176
500,0.026950664265116952
501,0.027663456592590212
502,0.028354145431791638
503,0.02901974576850606
504,0.02965308727721134
505,0.030318343074485863
506,0.03105326703846212
507,0.03181799353439308
508,0.03263229950004179
509,0.03350195090783815
510,0.03410131809380011
511,0.03434235401182115
512,0.03434575362806477
513,0.034096768901529975
514,0.03376906027643724
515,0.03336487398560391
516,0.03314176794022311
517,0.03291080629054687
518,0.032346634605756173
519,0.03172382873793281
520,0.031049443243695428
521,0.030720764850521345
522,0.029969494925491915
523,0.02907691345760269
524,0.02816258204734968
525,0.027175575371314226
526,0.026253212840257327
527,0.025382410092225628
528,0.024518333062661237
529,0.023562831254620293
530,0.02255580565464563
531,0.021522553391272944
532,0.020589813658482867
533,0.019793067485232695
534,0.01908302194349041
535,0.018397903384709566
536,0.01768458736079734
537,0.016932922904069708
538,0.016118669338183705
539,0.015417152668215117
540,0.014815277259230287
541,0.014363227093645445
542,0.013937991177354036
543,0.013532412788289549
544,0.013146034793849763
545,0.012860654667571556
546,0.012661096846289233
547,0.01245409967567962
548,0.01227843936542661
549,0.01211424376506948
550,0.011934421757474624
551,0.011760581097712287
552,0.011389629689485847
553,0.011041438797954009
554,0.010714579286169807
555,0.010407725464753773
556,0.01014022121479894
557,0.009752171629996725
558,0.009479869686281856
559,0.009176223994667493
560,0.008978952354056054
561,0.008828156193603724
562,0.008721610663798974
563,0.008899957185477198
564,0.008823969783527015
565,0.008772326017053165
566,0.0087235572500998
567,0.008561599680992082
568,0.008395678195623053
569,0.00809085043495358
570,0.007751506339808396
571,0.007758451732700078
572,0.007733343902232958
573,0.00781357922366601
574,0.007888443639759901
575,0.008025735296670932
576,0.008177361765802001
577,0.008304363205744878
578,0.008421851751612745
579,0.008467776761240896
580,0.008548550750828944
581,0.008502903204087659
582,0.008465201418714572
583,0.008435376380099105
584,0.008414546886862443
585,0.008403507238852888
586,0.008457814127454704
587,0.008550963467862509
588,0.008887950931735398
589,0.009011221393950589
590,0.009141849028817426
591,0.009276586441150024
592,0.009399562681168207
593,0.009527656506646089
594,0.009567254225761174
595,0.00949999214326565
596,0.009499868676798612
597,0.009514929934466565
598,0.009634275319279824
599,0.009765999235686246
600,0.009937388996253854
601,0.010116637148678683
602,0.010309269642935968
603,0.010516117315559128
604,0.01075459519849396
605,0.011102006982457604
606,0.011360900440180989
607,0.011638497494268985
608,0.011806873454486907
609,0.011937177826441709
610,0.012169328317189008
611,0.012480537402950883
612,0.012815250294041673
613,0.013200698054579704
614,0.013630733635958596
615,0.014093503394541613
616,0.014591921569395403
617,0.01509545339987956
618,0.015506061599505202
619,0.01587628991025994
620,0.016188021842272908
621,0.016584862781038174
622,0.016947487818988333
623,0.017270036546395494
624,0.017860341605091718
625,0.018635042025760076
626,0.01935332892850734
627,0.02018751539792995
628,0.021634661040798735
629,0.02322640234090847
630,0.025062525692948968
631,0.027665757373112367
632,0.030179298343203067
633,0.033456114596567985
634,0.03596886891294298
635,0.0396526345897846
636,0.04297674356550737
637,0.04664626803975967
638,0.050068009080142466
639,0.05379432843450767
640,0.05692190251434635
641,0.06066570921656837
642,0.06503021827751335
643,0.06965260288759584
644,0.07451615820677396
645,0.0797317565750738
646,0.08518158503559824
647,0.09119343016225638
648,0.09652643950516422
649,0.10032443048747457
650,0.10290845927023687
651,0.10354024024685786
652,0.10253798559463531
653,0.09930831383311273
654,0.09448431474893633
655,0.0885673698309448
656,0.08233807858838642
657,0.07644312938496506
658,0.07062196878415494
659,0.06495826106695675
660,0.05968923143281265
661,0.05514974246228768
662,0.05112140007510715
663,0.04815593931668036
664,0.044731876372574135
665,0.04213996334923635
666,0.039241557389549056
667,0.03671084137851349
668,0.03414052781481319
669,0.031635737293036
670,0.029331868660217753
671,0.02713608883112136
672,0.025152410881875795
673,0.02310976042382544
674,0.021270070558120777
675,0.019674499711193644
676,0.018267817496336672
677,0.017030976583955377
678,0.01598557902495339
679,0.015029868339560415
680,0.014154618713559441
681,0.013352936010720927
682,0.012692133857642845
683,0.012081503550073215
684,0.011497067638155188
685,0.010955275491653624
686,0.010411406258059254
687,0.00990014997952089
688,0.00942590873190042
689,0.00897132234933204
690,0.00852997021692132
691,0.008119527152149676
692,0.007743599500381883
693,0.007411502431364509
694,0.007101009154123244
695,0.006810362986168106
696,0.006537976692392247
697,0.0062828055731241755
698,0.006052060067383992
699,0.005834958358052622
700,0.005630487656690946
701,0.005453705638799228
702,0.005274898487506514
703,0.005105569168383206
704,0.004945085052000542
705,0.004739307876986294
706,0.004559535323616967
707,0.004388421747859228
708,0.00423280135066632
709,0.004097451826243078
710,0.003968710474898861
711,0.00384734300919533
712,0.0037354360628598644
713,0.0036415071687188063
714,0.0035518605105370315
715,0.0034961937912207975
716,0.0034460115230244754
717,0.0033943486716232997
718,0.003341858600587016
719,0.0032831931872656234
720,0.0032263510117758656
721,0.003158406552490868
722,0.003089678176999463
723,0.0030238025528686336
724,0.0029574368917486622
725,0.002863291514527544
726,0.002779198469231917
727,0.002705408544946309
728,0.0026094901609469458
729,0.00253341166677331
730,0.002468760702609868
731,0.002414754034480464
732,0.002363197399060978
733,0.002322934536544794
734,0.0022842058274302273
735,0.002246944357134586
736,0.0022247763406166793
737,0.0022076441138772812
738,0.002191095306320081
739,0.0021678456735663796
740,0.0021443194666292452
741,0.0021217341869363957
742,0.002092282197175787
743,0.0020629915598651774
744,0.0020347657371189
745,0.0019862977859280524
746,0.0019341322537063793
747,0.0018812263024335673
748,0.0018255866340327802
749,0.0017780504337019144
750,0.001729381183409766
751,0.0016852470353216583
752,0.0016447208520955553
753,0.0016177769397109697
754,0.0015940398286074886
755,0.001577535677080342
756,0.0015616329443409295
757,0.0015486521600458613
758,0.0015506064486554443
759,0.0015588564220472994
760,0.001587757240353629
761,0.0015800628825943842
762,0.001594167207140306
763,0.0016070422919857463
764,0.0016125291461132898
765,0.0016123233064009941
766,0.0016103836919819673
767,0.0016010413042553998
768,0.0015921518407424962
769,0.0015837056064084544
770,0.0015555663560869535
771,0.0015330594011899955
772,0.0015035012900478217
773,0.0014845017582993958
774,0.0014528296943118917
775,0.0014262823749574135
776,0.0014057439775721145
777,0.0013871050626435867
778,0.001370989212299613
779,0.0013577235263993192
780,0.0013488526958265025
781,0.0013469087463477802
782,0.001345277918353513
783,0.0013439579293572396
784,0.0013429467930279773
785,0.0013502191093177675
786,0.0013583949939998715
787,0.0013646803757979406
788,0.0013711344182815424
789,0.0013755074971549288
790,0.0013753368646405354
791,0.0013754773403137676
792,0.0013759285154197802
793,0.0013766902652607219
794,0.0013687463380073416
795,0.0013597483632539018
796,0.0013497926166021587
797,0.0013373135490846988
798,0.001327309847131775
799,0.0013195102252379625
800,0.0013031074466864421
801,0.001290197195952015
802,0.0012866785791037698
803,0.0012834082793350195
804,0.0012807081980484127
805,0.001278370064545631
806,0.0012762783667564577
807,0.0012773112835539316
808,0.0012789817327318344
809,0.0012809260605608952
810,0.001283146208557204
811,0.0012867561345024851
812,0.0012908878129021238
813,0.0012953175004820246
814,0.0013000492311878921
815,0.0013081996403164066
816,0.0013172789416966643
817,0.0013267218579130426
818,0.0013365367337509868
819,0.001346732348430551
820,0.001356805109178639
821,0.0013668011670832053
822,0.0013771922360807393
823,0.0013879881536651112
824,0.0013991992654896796
825,0.00140867398216648
826,0.0014159930987717036
827,0.0014236789677829838
828,0.0014317396124007556
829,0.0014397798977443352
830,0.0014478314305378887
831,0.0014562694577219247
832,0.0014651031638994187
833,0.001471652579616613
834,0.0014783921056662666
835,0.0014837691224931489
836,0.0014859794715121621
837,0.0014899729609327275
838,0.0014959900057070854
839,0.001502108940289223
840,0.001507364334584945
841,0.001513425784816903
842,0.0015202827871874905
843,0.0015272978244107547
844,0.0015346359800528589
845,0.0015468716146708004
846,0.0015603513777606582
847,0.0015743747029678442
848,0.001587702236800862
849,0.0016010387503519914
850,0.00161546204494837
851,0.001633943445321853
852,0.001653079653534412
853,0.0016728949059985792
854,0.0016934147330717217
855,0.0017137690001287514
856,0.0017330639439485256
857,0.0017530630618961861
858,0.0017733675308278603
859,0.0017928186905165416
860,0.001812991691031674
861,0.0018314316345691994
862,0.001842836492272934
863,0.001855577260054735
864,0.001869477831032293
865,0.0018807961344341835
866,0.0018920444620738018
867,0.0019035967377772462
868,0.00190515200490955
869,0.0019035412827824037
870,0.0019196762895652558
871,0.001926487296288611
872,0.001936841163712555
873,0.001950449373779737
874,0.0019654981713563883
875,0.0019815356636766084
876,0.002004330006716309
877,0.002028007188078663
878,0.0020621031891515824
879,0.0020985886085421587
880,0.002136612736328859
881,0.00218696623521378
882,0.0022430710906585767
883,0.002301739840225492
884,0.002363126390853665
885,0.002427396340971695
886,0.0024970953275692547
887,0.002571251357466243
888,0.002649072174689286
889,0.0027307971152418183
890,0.002816685136665533
891,0.0029006620180292778
892,0.002985155844295642
893,0.0030740599473792116
894,0.003167679663532252
895,0.0032663469817060947
896,0.003355846300996686
897,0.0034410218672942697
898,0.003530669201676101
899,0.003625071651001238
900,0.0037227194107463933
901,0.0038090411691151195
902,0.003911535450139576
903,0.004025551472204026
904,0.004141914856924109
905,0.0042632407121460025
906,0.004401379215642307
907,0.004540826274203271
908,0.004672228460065345
909,0.0048411968873146504
910,0.0050224201079505666
911,0.005224789776124827
912,0.005442294702512676
913,0.005689465457465986
914,0.005960135844697025
915,0.006255302999979382
916,0.006591500560412416
917,0.006957498763341322
918,0.00735985067391737
919,0.0078263868748549
920,0.0083384387714528
921,0.00890150934088142
922,0.00952180822715808
923,0.010204094787799645
924,0.010910849124221878
925,0.011690304719351728
926,0.012551561173797925
927,0.013525033360732968
928,0.014601076786077105
929,0.015789145685785988
930,0.017078188921535432
931,0.01844780058073997
932,0.01993605212589845
933,0.02152725992377702
934,0.02316151379295866
935,0.02483892104797272
936,0.026431978253834074
937,0.027968215906362826
938,0.029371853208762427
939,0.030573959686816202
940,0.03157822535266345
941,0.03217657882684926
942,0.03234748703502302
943,0.03199368780789208
944,0.031108092468261947
945,0.029747939551714116
946,0.02806459568240696
947,0.026169280434297244
948,0.024138901574784023
949,0.02208181161105402
950,0.020066740157440238
951,0.018177297577226297
952,0.016428090915821425
953,0.014820459544852274
954,0.0133810088421346
955,0.012113735366984596
956,0.010974180950000788
957,0.009953271773893036
958,0.009042521601769027
959,0.008234992852914097
960,0.007513539122593804
961,0.0068686614313826855
962,0.006291658890629201
963,0.005771517086053103
964,0.005298303605320456
965,0.004873276914255664
966,0.004490796443528635
967,0.004145106992098942
968,0.0038324288864508313
969,0.0035493754258964466
970,0.0032926169485971318
971,0.0030518810434412955
972,0.0028323780842417546
973,0.0026322936234884865
974,0.0024494595908709045
975,0.0022820024806542547
976,0.0021285198465553017
977,0.0019876008626850327
978,0.0018566182424363327
979,0.0017359661631218477
980,0.001624676120060999
981,0.001517188683111276
982,0.0014155227609750486
983,0.0013214592104348953
984,0.0012377820782973165
985,0.0011609600248817223
986,0.0010895361425843624
987,0.0010238181950647741
988,0.0009625727477195088
989,0.000905583037409131
990,0.0008535550315371004
991,0.000804874747796253
992,0.0007592791987407201
993,0.0007140741018760889
994,0.0006712395477940699
995,0.0006310367200907705
996,0.0005970888517420641
997,0.0005654182224384308
998,0.0005355731508640035
999,0.0005063320989531576
1000,0.00047804604568351164
