Wavelength,Responsivity
400,0.005311157521691161
401,0.0052034399959744555
402,0.005136872006209484
403,0.005356837382675745
404,0.0056585995684461385
405,0.005800292251427731
406,0.005989184854453709
407,0.006147553066694002
408,0.00633389691320979
409,0.006558998100569023
410,0.006838157357395047
411,0.007220526962483185
412,0.007710527949840701
413,0.008312009383664321
414,0.009036523302026794
415,0.00987039691057406
416,0.010877613371074967
417,0.012059547588281764
418,0.013477959583157883
419,0.015236139162354237
420,0.017435742896056976
421,0.020169167371258904
422,0.023674231849649393
423,0.028248050486832904
424,0.034298443261474146
425,0.04252639650296155
426,0.05403894859262639
427,0.0706132586310376
428,0.0931896996770327
429,0.11711809654487237
430,0.13846607062092595
431,0.1463613356739521
432,0.13455122988488868
433,0.11200827266676658
434,0.08599261241765144
435,0.0664086550094023
436,0.05165134722211659
437,0.040964658492993564
438,0.03324687087307529
439,0.02753113024869423
440,0.02322825636390226
441,0.019907213008990995
442,0.017318598981363918
443,0.015254040857219105
444,0.013588320395654148
445,0.012253255134914272
446,0.011094150564149086
447,0.010151351985784958
448,0.009368569837446673
449,0.00868947433384052
450,0.008100789035948741
451,0.007667807793189299
452,0.007274128358665784
453,0.00692618672170531
454,0.0066147344513570105
455,0.006342880691807332
456,0.006106297187845975
457,0.005901647350270099
458,0.005724297597163307
459,0.005571453440906088
460,0.005426598163825241
461,0.005302778788196817
462,0.005198287519953809
463,0.005102681633213408
464,0.005016043577728241
465,0.004945613397770127
466,0.004871855334619454
467,0.004783097938445726
468,0.004723716574963657
469,0.004692661398427804
470,0.004682071585244584
471,0.004747087378599525
472,0.0048408551744060346
473,0.005015092576225921
474,0.005196288887031405
475,0.005366969550575371
476,0.00550209726905738
477,0.005647673568818185
478,0.005785285401947946
479,0.005944766210039736
480,0.006141928299937988
481,0.006372514890798153
482,0.00663472704618748
483,0.006930986528067441
484,0.007262104810586268
485,0.007638823687660051
486,0.008033686510757325
487,0.008440553748647502
488,0.008845985401182307
489,0.009351052167482856
490,0.009982151564969798
491,0.010762848848829323
492,0.01170360873298397
493,0.012836201548824134
494,0.014175673661242436
495,0.015772553939929882
496,0.0178335977097837
497,0.020458621562074942
498,0.023821048032539052
499,0.027863805258621345
500,0.033240576007522504
501,0.038664074008350015
502,0.04543266794436192
503,0.05384470907187851
504,0.06449230083949499
505,0.07796381717955654
506,0.09491993334644168
507,0.11560211549941614
508,0.13900240442742065
509,0.16169260488935241
510,0.1782093682428582
511,0.18233187447955507
512,0.17133761857327914
513,0.1497818075836127
514,0.12565303182659437
515,0.10311532927554887
516,0.08422978566954628
517,0.06893594112078728
518,0.05688890853060665
519,0.047551132286368494
520,0.0401972960648051
521,0.034401698298187414
522,0.029799910253609996
523,0.026134437374545953
524,0.022984052134596422
525,0.02033737462299873
526,0.017953961368659743
527,0.015909730819770124
528,0.014100455572758902
529,0.01246163377350598
530,0.01124007262901824
531,0.010258447021837999
532,0.00941189092257458
533,0.00867201758046156
534,0.008044858455173661
535,0.0075050157376184545
536,0.007025675812185714
537,0.0066310228556798025
538,0.006329048286644884
539,0.006012259451374821
540,0.005700233563544635
541,0.0054004949659118345
542,0.005118643479802598
543,0.004822686759011676
544,0.004571208907374474
545,0.004354944875715341
546,0.004161554649123563
547,0.00400601173665125
548,0.0038696664523012398
549,0.003732906213839614
550,0.003607277778270677
551,0.003491537813462552
552,0.0033817229706731467
553,0.003255828220519485
554,0.0031426506881229673
555,0.0030380669626927843
556,0.002940997055134919
557,0.00284557215392826
558,0.002761064364069614
559,0.0026852350001317035
560,0.0026193368620367505
561,0.0025717951215841746
562,0.0025281533017288576
563,0.0024885944303317214
564,0.002464038569517589
565,0.0024428534370716003
566,0.0024260202637067046
567,0.0024161842109704425
568,0.0024098933228508435
569,0.002400897350651925
570,0.0023863855559883604
571,0.0023685435314449305
572,0.0023321277463744542
573,0.0022996838704236345
574,0.0022585782064213746
575,0.002227536653933657
576,0.002195953793614253
577,0.002169042336203476
578,0.002139971674649178
579,0.002122002717412048
580,0.0021127134231217863
581,0.0021142620352085197
582,0.0021223788140644854
583,0.002145122105229727
584,0.0021688629011577397
585,0.0021942705697762716
586,0.0022202638499496177
587,0.0022476508958669426
588,0.002278270495593618
589,0.002313099988087552
590,0.0023518107939456707
591,0.002396235488000705
592,0.0024494693666763873
593,0.0025073318496397837
594,0.0025670656768032075
595,0.002631834005892587
596,0.002690991701958612
597,0.002753974461042941
598,0.002817351749225827
599,0.0028841947496002994
600,0.002944987748344645
601,0.003004779242912448
602,0.0030376211996991083
603,0.0030728990038197085
604,0.0031116051414955626
605,0.0031576982968294877
606,0.003199228367899869
607,0.003248660388683039
608,0.0033057137135155314
609,0.003378309638362969
610,0.0034685009031601094
611,0.0035794081981178998
612,0.0037032368058058252
613,0.0038361201974441215
614,0.003995211909060752
615,0.004172365863399102
616,0.004372359966820889
617,0.004622205976144271
618,0.004886953681679201
619,0.005180774010123883
620,0.005464230515512107
621,0.005746857413341926
622,0.006026675515546741
623,0.006331607452453556
624,0.006664633577972109
625,0.0069961474411557355
626,0.007325726898829461
627,0.007610048654459777
628,0.00793942155720633
629,0.008257563915263106
630,0.00864947748522781
631,0.009109173358660263
632,0.00967261350848555
633,0.010320577366151464
634,0.011073144417253754
635,0.011953171681688532
636,0.013016534338950315
637,0.014233525052163179
638,0.015634225745035913
639,0.017315161524462244
640,0.01928606743146789
641,0.021608866311435604
642,0.024365639817325667
643,0.027638586687166573
644,0.03155228526706672
645,0.03630409481213753
646,0.04190647836063747
647,0.048785884735590264
648,0.05729191639568675
649,0.06778236472748055
650,0.0808996245184892
651,0.09723803782865054
652,0.11694539965299094
653,0.13952985085607258
654,0.16336717171061074
655,0.18403437527515268
656,0.19571136047740517
657,0.19535986602108524
658,0.18245443254678084
659,0.1611543513904707
660,0.13699472545569868
661,0.11420542961437788
662,0.09429720464755434
663,0.07800677011913612
664,0.06474365042886132
665,0.05403988769869054
666,0.04540340898068199
667,0.0382064240993891
668,0.03254060628189068
669,0.02776770611718076
670,0.023927970036403123
671,0.02089187928024757
672,0.018317848892401862
673,0.01621348250874792
674,0.014498643968184314
675,0.013064040490574745
676,0.011879459998849635
677,0.010849231050665048
678,0.009980249839938397
679,0.00924184624881937
680,0.008611836890363798
681,0.008059207887015819
682,0.00758083738479939
683,0.007156550307619082
684,0.0067688700570120155
685,0.006401149027481302
686,0.0060346627664154
687,0.005696371648687621
688,0.005367253835079359
689,0.00506713133351785
690,0.004792736059706724
691,0.004518427613519076
692,0.004255874778216287
693,0.004004703100722196
694,0.003774793584045105
695,0.0035528597469737288
696,0.0033575088864572626
697,0.003165628228429952
698,0.002985974087142266
699,0.002823860745855858
700,0.002672772819925667
701,0.002529109436119737
702,0.002403660252986116
703,0.0022844256868316537
704,0.0021737221295769268
705,0.0020794501306218805
706,0.0019997431907350623
707,0.0019252435974017393
708,0.001863054205707772
709,0.0018047367555982094
710,0.0017495525923437556
711,0.0016982885249233817
712,0.0016559795230639436
713,0.0016158085778585653
714,0.0015761876797332772
715,0.0015339352167914907
716,0.0014937536123913954
717,0.0014534773065587358
718,0.001408856739407496
719,0.001367752059434244
720,0.0013294837812379535
721,0.0012950615637627848
722,0.0012637431103631562
723,0.001233826302300936
724,0.0012054285911508875
725,0.001180184620719242
726,0.0011560355126075913
727,0.0011329231519413647
728,0.0011112488580712788
729,0.0010907707924114475
730,0.0010711504274586719
731,0.0010521869862927112
732,0.0010330108030099537
733,0.0010146124145783166
734,0.0009969543678242678
735,0.0009798580876351534
736,0.0009633650521250226
737,0.0009475199280234858
738,0.00093175388061242
739,0.0009141602992257234
740,0.0008972181260239922
741,0.0008757790822363702
742,0.0008491964275939377
743,0.0008229889018314877
744,0.0007954135501959642
745,0.0007726940447837021
746,0.0007502956064064393
747,0.0007229269395855417
748,0.0007023661116422837
749,0.0006813563450406077
750,0.0006651492755631612
751,0.0006513463202715814
752,0.0006392680355739791
753,0.0006282127669047021
754,0.0006184787795931589
755,0.0006101464756855379
756,0.000603944578645729
757,0.0005979766532536357
758,0.0005922348817282156
759,0.0005881306426476636
760,0.0005843878270925532
761,0.0005808253101160219
762,0.000577864371510034
763,0.0005756706349867015
764,0.0005736289625190045
765,0.0005724428493102682
766,0.0005738224454672136
767,0.0005759327977784054
768,0.0005772238503300053
769,0.0005763673519706105
770,0.0005754057072992485
771,0.0005711754405144137
772,0.0005671123235884919
773,0.000553333393626185
774,0.0005427101799691578
775,0.0005325947275807921
776,0.0005226148543114953
777,0.0005121776146962548
778,0.0005004414018499943
779,0.0004909090202850635
780,0.00048147142846375517
781,0.0004719069789167615
782,0.0004642056370296826
783,0.0004584246008931071
784,0.0004514879627942914
785,0.00044057162657060503
786,0.0004340667196516456
787,0.0004262859949953827
788,0.00041841926707485594
789,0.000410476252428463
790,0.00040242182425169086
791,0.0003944062964871089
792,0.0003865905471492446
793,0.0003785528106445327
794,0.00037206054451261177
795,0.0003674387760420534
796,0.00036497524048051475
797,0.00036272013731653593
798,0.0003629671308636517
799,0.0003632896433775296
800,0.0003636876597831204
801,0.0003649145176963419
802,0.0003669275110118863
803,0.00036902086344963293
804,0.00037124299646022665
805,0.0003743665813001158
806,0.0003775772007494497
807,0.00038057452585008603
808,0.0003831200052630591
809,0.00038575453371186765
810,0.00038814218315619796
811,0.00038729067449875767
812,0.00038651159458003904
813,0.00038270588197894046
814,0.00037983746207121593
815,0.000378349196249658
816,0.0003783619409978268
817,0.00037987740333625343
818,0.00038147825400140344
819,0.00038319106393417947
820,0.0003860092764754812
821,0.0003889266481732489
822,0.00039194530934874154
823,0.00039495178092399625
824,0.00039796627883145085
825,0.000401086644896769
826,0.0004042016734362427
827,0.0004058687277743135
828,0.00040762807152869746
829,0.00040948118479760057
830,0.00041094512082069206
831,0.00041216072387396875
832,0.0004134631026223852
833,0.0004145823901910513
834,0.000413627080483889
835,0.00041260079627222627
836,0.00041025796119027177
837,0.00040460271494771475
838,0.0003991289760484128
839,0.00039415448067560183
840,0.00038804673503716115
841,0.0003817187683902485
842,0.0003747149179789209
843,0.0003671695348708479
844,0.0003622274155451103
845,0.0003555833184464635
846,0.00034985308007955395
847,0.0003453750447338579
848,0.00034209079596330154
849,0.0003435023892690501
850,0.0003449883572437497
851,0.0003489406431275603
852,0.00035662293557556186
853,0.00036451149769766827
854,0.00037203490149775186
855,0.0003794689178098066
856,0.00038711295226032496
857,0.00039419714530700806
858,0.00039999738089062126
859,0.0004059756086396655
860,0.0004121383384537845
861,0.0004200791794328388
862,0.0004285060995437125
863,0.00043718970566810727
864,0.0004454960498934314
865,0.00045375379605070115
866,0.0004622731245685577
867,0.0004710646645090599
868,0.00047726967704237437
869,0.0004834002255970459
870,0.0004897388922157457
871,0.0004951979168946912
872,0.000499391047490364
873,0.0005037340367436419
874,0.0005074255042344381
875,0.0005087250190629405
876,0.0005108250219370847
877,0.0005135046992958839
878,0.0005161417107615821
879,0.0005187173265209976
880,0.000521424278995805
881,0.0005244479882355105
882,0.0005275757097683778
883,0.0005322951863923385
884,0.0005374712371961273
885,0.0005449819996134329
886,0.0005547882422046579
887,0.0005649709939717768
888,0.0005753264164468911
889,0.0005810415091278861
890,0.0005869611457627407
891,0.0005854725054501492
892,0.0005729264733994938
893,0.0005580293630749725
894,0.0005483351740510505
895,0.0005461014952855939
896,0.0005468172282051535
897,0.0005547490186781967
898,0.0005632341023246358
899,0.000572062668501627
900,0.0005812327458275238
901,0.0005923512784113698
902,0.0006039699087865158
903,0.0006161188738195541
904,0.0006298151699685076
905,0.0006442028871660975
906,0.0006592976001929009
907,0.0006769642328534228
908,0.0006974909150590085
909,0.0007191495640937373
910,0.0007420381928167161
911,0.0007671213727500477
912,0.0007936831426971386
913,0.0008218418276831658
914,0.0008441456752117225
915,0.0008609230360741541
916,0.0008778957115954471
917,0.0008543861616382471
918,0.0008516309063294567
919,0.0008425153326264462
920,0.0008533520606395709
921,0.0008803006163469028
922,0.0009209789971835371
923,0.0009647415883946389
924,0.001012918737948609
925,0.001074215423948293
926,0.0011407927105772273
927,0.0012132585963784165
928,0.001286802328842542
929,0.001363591378792549
930,0.001447534133367699
931,0.0015342169783276612
932,0.001596481182386771
933,0.0016639062377143037
934,0.0017497047674063157
935,0.0018500630388123402
936,0.0019608053876422563
937,0.0020856884549470284
938,0.002229124589817872
939,0.002389587227053686
940,0.0025698917719081562
941,0.0027932388612212887
942,0.0030509707282306456
943,0.0033465117955370372
944,0.0036921116902288785
945,0.004101589813253803
946,0.004581000273998529
947,0.005146356991398058
948,0.00579173904998341
949,0.00656001108204031
950,0.007485172259011516
951,0.008564575152048197
952,0.00981145965554272
953,0.011333901227803301
954,0.013199457876192694
955,0.01554752956480056
956,0.018407728754279984
957,0.021802832630353923
958,0.025581958755113727
959,0.029359719007315918
960,0.032475106551036394
961,0.03372763761374849
962,0.03231122297409337
963,0.02901666460166874
964,0.024637442563622672
965,0.020056355088676352
966,0.015874960472548494
967,0.012303714542816462
968,0.009624182555549988
969,0.007547734850825085
970,0.005978659057319176
971,0.0047853072515777854
972,0.004026294708706626
973,0.0034153823347282002
974,0.0029195707057161945
975,0.0025237431309707977
976,0.002200667008966457
977,0.0019309723492724213
978,0.0017090103759109393
979,0.001539132182628604
980,0.0013930454374755648
981,0.0012666116646733786
982,0.0011508940572517383
983,0.0010477969300455722
984,0.0009573882786413412
985,0.0008645852149040866
986,0.0007439424876607916
987,0.0006385824651424764
988,0.0005469805137645054
989,0.0004664610723577434
990,0.0004130886740108228
991,0.000374844740313553
992,0.00034054057387045904
993,0.0003093073504781942
994,0.00027859858352707195
995,0.00025088567496400483
996,0.00022581743471589196
997,0.00019532232781532336
998,0.000163657437634088
999,0.0001415630280109106
1000,0.000134439666892453
