Wavelength,Responsivity
400,0.007593640879142759
401,0.0076126249813406165
402,0.007631609083538473
403,0.007650593185736331
404,0.007669577287934187
405,0.007688561390132045
406,0.0077075454923299
407,0.007726529594527757
408,0.007745063798047335
409,0.007733302325051738
410,0.007721390512337311
411,0.007709328359904058
412,0.00769711586775198
413,0.007684753035881079
414,0.0076722398642913485
415,0.007671267742734314
416,0.007858614297436095
417,0.008046772686619552
418,0.008235742910284685
419,0.00839627112500323
420,0.00853628105386297
421,0.00867686227365426
422,0.00880566535733834
423,0.00882653186292445
424,0.00884739836851056
425,0.008868264874096669
426,0.00888913137968278
427,0.008909997885268889
428,0.008930864390855
429,0.00896116911122998
430,0.009046703696413394
431,0.009132538961034468
432,0.009218674905093201
433,0.009305013768334805
434,0.00939160422203849
435,0.009478494679495702
436,0.009565685140706444
437,0.00978325569495275
438,0.010003949192107427
439,0.010225548196953208
440,0.010580579968283972
441,0.011051060186375758
442,0.011523565045943448
443,0.012027004216457185
444,0.012582819824642948
445,0.013141016813974967
446,0.013698350167130169
447,0.014245359582320767
448,0.014794679045053103
449,0.015333841143438108
450,0.015803052254403517
451,0.016274196965444947
452,0.0167472752765624
453,0.017133587459315213
454,0.017376172645233497
455,0.017619659869464763
456,0.017864049132009
457,0.017935900515580566
458,0.017988918680905387
459,0.01804199698211774
460,0.018134204324491005
461,0.0182799368214668
462,0.018426130534553924
463,0.018572785463752378
464,0.019005853921469112
465,0.019552040887786674
466,0.020100400869477324
467,0.021156573014691444
468,0.02255609279310846
469,0.024234670649848505
470,0.02596367608170548
471,0.028033457738477315
472,0.03041713845850771
473,0.03280500635035888
474,0.03571410062056223
475,0.03815599787715869
476,0.04008511316210556
477,0.04167100867068793
478,0.043626115237479196
479,0.04633703557721826
480,0.0482358492291842
481,0.05076715568264936
482,0.0538852305783025
483,0.056831610299226044
484,0.06031552025312384
485,0.06407558342671416
486,0.06705836337830849
487,0.07092435143774047
488,0.07491103308100333
489,0.07913142883746874
490,0.08258300270841686
491,0.08532626950048768
492,0.0909811572189164
493,0.09365652818459613
494,0.09702894144170515
495,0.10008416837924522
496,0.10283738680700483
497,0.10672729645305223
498,0.10967334303329032
499,0.11176245690440598
500,0.11576521630354539
501,0.118078863400007
502,0.12081773843532335
503,0.12386070394996164
504,0.1264209178957474
505,0.129177248173209
506,0.1333101185822667
507,0.13838869481064003
508,0.1422148521710485
509,0.14670831371470394
510,0.1506708133811989
511,0.1528229907859189
512,0.15447967143689598
513,0.15596541483954812
514,0.15730634247718248
515,0.15850954761338368
516,0.15972082566446724
517,0.16095459060378864
518,0.16219193089496875
519,0.1637669094070522
520,0.16547378865230253
521,0.1674716106592072
522,0.16970233601500276
523,0.17221061324718834
524,0.1754672955003791
525,0.17927156438819628
526,0.1841270774123299
527,0.18658736157109151
528,0.18960695682931514
529,0.19430591911683992
530,0.19714980157458512
531,0.19976475158495072
532,0.20080213042831124
533,0.2018419948883564
534,0.20216999712425837
535,0.2023676211879502
536,0.2025645687229073
537,0.20153534373007462
538,0.19654301298693685
539,0.19472603099890107
540,0.1938446558037295
541,0.1939051285703263
542,0.19471334078570754
543,0.19552321275158469
544,0.1967243163453457
545,0.1981292494622992
546,0.19917843036540717
547,0.19985000141184892
548,0.20052269412332327
549,0.20107691976468572
550,0.20097081693048569
551,0.2008629964120615
552,0.20061966672808523
553,0.19988082173504723
554,0.1988389904351337
555,0.19741720304242552
556,0.19516183324991507
557,0.19220032673228957
558,0.18992323496052987
559,0.18415636981799402
560,0.1801033962045088
561,0.1782454484162932
562,0.17563962637798988
563,0.1720722705496414
564,0.16929365214795214
565,0.167626814770021
566,0.1664345391961654
567,0.16581847636334945
568,0.16542376300066788
569,0.1650735969224145
570,0.1648889368792388
571,0.1647026109700532
572,0.16421195686533915
573,0.1634210018319133
574,0.16245844558681763
575,0.1614400789624899
576,0.15953307949925508
577,0.15629087434392974
578,0.15388698478125332
579,0.15010169349533592
580,0.14667536438256204
581,0.1415052016284529
582,0.13778750446819277
583,0.13288427988173607
584,0.1288713934631449
585,0.12338331330802461
586,0.11885655789094673
587,0.11314696797042181
588,0.10918117624550942
589,0.10371751982011602
590,0.09999408197350201
591,0.09528262744248434
592,0.09104280098697154
593,0.08842603380731245
594,0.08495780526033878
595,0.0819135444312751
596,0.07814353732866289
597,0.07529706869492653
598,0.07279564678209632
599,0.06999835410456819
600,0.06600202630182109
601,0.0641344518663959
602,0.05962449906508315
603,0.05685569358424242
604,0.05306617744657559
605,0.05043497436345852
606,0.04702158895334699
607,0.04504005115394611
608,0.042264597022985295
609,0.03961589999736569
610,0.0372435746748876
611,0.035190593395654605
612,0.033085516872481034
613,0.03096749172967951
614,0.028889203790410545
615,0.02701563518616558
616,0.02571184564560527
617,0.024544251141881662
618,0.02358060370817007
619,0.022616359387714027
620,0.021855945467743415
621,0.021092960738580815
622,0.020687559240521264
623,0.0204398340475734
624,0.020191206816312566
625,0.019955878051796456
626,0.01977134832950877
627,0.019586127044514463
628,0.01940021419681354
629,0.019198752178148627
630,0.01899126406857908
631,0.018783020369269727
632,0.018563215332197697
633,0.0183038845718941
634,0.018043641638015584
635,0.017782486530562143
636,0.01728977228926316
637,0.016781393536446684
638,0.016304944680282627
639,0.015938886392435955
640,0.015571602393705178
641,0.015211433087745632
642,0.014872107329133466
643,0.014531650553251953
644,0.014190062760101088
645,0.013865115606215644
646,0.01355640575104422
647,0.013246673585784758
648,0.012943511726879166
649,0.01289518694774906
650,0.01284665169301259
651,0.012797905962669763
652,0.012819138389760313
653,0.012897702746796674
654,0.01297644751149563
655,0.013065739979088529
656,0.013287574460372644
657,0.01351002445015268
658,0.013733089948428623
659,0.014039775424674996
660,0.014484515023107701
661,0.014930537757696854
662,0.01538112432204021
663,0.015917106594595654
664,0.016454635618118774
665,0.01699371139260957
666,0.017672175818671667
667,0.018430729742150327
668,0.019191478625523894
669,0.019922259820720847
670,0.020486704086790833
671,0.021052744368094872
672,0.021620380664632968
673,0.02221764114430077
674,0.02283947902516069
675,0.0234630641613355
676,0.024101671662017647
677,0.02479380595569073
678,0.025487879631736713
679,0.026183892690155586
680,0.02708313591574434
681,0.02806085033880054
682,0.029041319200276725
683,0.030196757213447153
684,0.03154215495759078
685,0.032891357338579244
686,0.0342990964463736
687,0.03571243583547234
688,0.03712748346256596
689,0.038694721789377176
690,0.04060209705957248
691,0.04253404825780111
692,0.04448341763350727
693,0.04701611485569334
694,0.04911780182021248
695,0.05097427798336611
696,0.05302840886003898
697,0.055028348235464854
698,0.05690697019206816
699,0.05859018634751232
700,0.06014244081957778
701,0.06124159367307568
702,0.062240809349306744
703,0.06296673468452132
704,0.06345849211297169
705,0.06395139212328517
706,0.06438881944809434
707,0.06395873772276686
708,0.06352718136089296
709,0.06309415036247264
710,0.06228224912101663
711,0.06132670916739606
712,0.06074024038175413
713,0.06045135141451722
714,0.060161412802697926
715,0.05966045532953313
716,0.05879385813536756
717,0.0583138417606772
718,0.05812732480234275
719,0.05794006175130199
720,0.057769463904275294
721,0.0576977027744939
722,0.05762552001781567
723,0.057552915634240566
724,0.05766270546990315
725,0.05798407352218263
726,0.058306108397721323
727,0.05865058788195946
728,0.05908700955759595
729,0.05952440855978255
730,0.05996278488851928
731,0.060929824204107697
732,0.06199500109952018
733,0.06306286057843734
734,0.0642504405323951
735,0.06546735826513667
736,0.06668956739479745
737,0.0680632465368228
738,0.06944040754673624
739,0.07080656545891993
740,0.0721664734260985
741,0.07347510448396913
742,0.07464668221995743
743,0.07582115057872142
744,0.07680838853098634
745,0.07772764812904838
746,0.07864909839158482
747,0.07931806289074966
748,0.07971662572169978
749,0.0801159703191878
750,0.08051449600006047
751,0.08064442968716205
752,0.0807744235101512
753,0.08090447746902785
754,0.08105852603119361
755,0.08123413460025726
756,0.0814099235769835
757,0.08159487282923311
758,0.08195157390472611
759,0.08230893174519306
760,0.08266694635063394
761,0.0831009699803489
762,0.083667270192566
763,0.08423477014366625
764,0.08480980439040788
765,0.08567840901685041
766,0.08654899428912059
767,0.08742156020721842
768,0.08822770897787507
769,0.08899290205353472
770,0.08975978645103118
771,0.09052836217036449
772,0.09138310000556128
773,0.09224855291382879
774,0.09311593876133838
775,0.09393524802117398
776,0.09473051127439232
777,0.0955275117865838
778,0.09630361851803888
779,0.0970299367250002
780,0.09775780187582696
781,0.09848721397051921
782,0.09907387941812942
783,0.0996008067580294
784,0.1001287564080174
785,0.10062315267825082
786,0.10099948577825028
787,0.10137645030506884
788,0.10175404625870645
789,0.10197271392490065
790,0.10213758742169149
791,0.10230255112231361
792,0.10237463171482007
793,0.10219392218116745
794,0.10201243088097695
795,0.10183015781424852
796,0.10114338920418789
797,0.1003214733767061
798,0.09949717616807804
799,0.09892813759267684
800,0.0984383451214244
801,0.09794701863164212
802,0.09646152060143252
803,0.09565581408261954
804,0.09551326313799204
805,0.09537006126301432
806,0.09534440871502367
807,0.0954459676601403
808,0.09554748513223103
809,0.09564896113129591
810,0.09613979136421376
811,0.09668522175656064
812,0.09723170452693931
813,0.09796657103809799
814,0.0989832142274302
815,0.10000205924256574
816,0.10104090703391319
817,0.10239052926540342
818,0.10374315222538938
819,0.10509603863042985
820,0.10634274420388054
821,0.10759217754118967
822,0.10882975158348722
823,0.10996881180777307
824,0.11111031835996371
825,0.11226037224389789
826,0.113433601858329
827,0.11460934274742347
828,0.11568319641584797
829,0.11654646800809
830,0.11741148521574074
831,0.11822879846899292
832,0.11824836257651147
833,0.11826763171091742
834,0.1182866058722108
835,0.11808337128730946
836,0.11729831783343568
837,0.11651104794256431
838,0.11544879611796853
839,0.11417889630884313
840,0.1128740647041102
841,0.11139496804554525
842,0.10991203435833553
843,0.10670067287616838
844,0.10538474375230654
845,0.10405771659770117
846,0.1027167277766724
847,0.10160792341776434
848,0.10094419466063323
849,0.10027861757594006
850,0.09921680860000416
851,0.0986648524554297
852,0.09856693867807895
853,0.09846852289679751
854,0.0983069980184457
855,0.09795055174176277
856,0.09759300240108568
857,0.09723434999641445
858,0.09662593212890853
859,0.09597614171591784
860,0.09535162158297045
861,0.0948240709113026
862,0.0942950372555459
863,0.09341484061401817
864,0.09219246840896181
865,0.09166505816631326
866,0.09130035259103635
867,0.09093456000250123
868,0.09068913279958891
869,0.09054700217371983
870,0.0904043039731819
871,0.09026103819797514
872,0.09041798352379735
873,0.09062667113150553
874,0.09083559928276384
875,0.09111394194467534
876,0.09150780687016866
877,0.09190233329042484
878,0.09229752120544384
879,0.0925273164171918
880,0.09273841987551297
881,0.09294976387738428
882,0.09309459839865829
883,0.09314704784125877
884,0.0931993770120842
885,0.09325158591113454
886,0.09307795298703132
887,0.09288963418271783
888,0.09270065388364149
889,0.09239117654744
890,0.0919418389743031
891,0.09149125810980464
892,0.09102840816493357
893,0.09016247225107213
894,0.08929436839611593
895,0.0884161787884294
896,0.08745256824122838
897,0.08648658626640732
898,0.08541485265958539
899,0.08408110645680218
900,0.08274418147100406
901,0.0813241896347168
902,0.07988887725979876
903,0.07842492900141286
904,0.076936954724997
905,0.0754917525172113
906,0.07419606499258381
907,0.07289733308865001
908,0.07167002405427382
909,0.07044687071035213
910,0.06939713719393314
911,0.06852250765350137
912,0.06764579053868813
913,0.06700031490468342
914,0.06641412928202561
915,0.065826500398067
916,0.06521463602603542
917,0.06455754189884438
918,0.063898859354762
919,0.06323858839378826
920,0.06252103324479212
921,0.061782236079119285
922,0.06104168700289158
923,0.06012405437468847
924,0.05880227781566578
925,0.057675178440346815
926,0.05719459312402623
927,0.05671283515789877
928,0.05592119175220732
929,0.05451496286979149
930,0.053650774657472144
931,0.05315419720068876
932,0.05265642905333223
933,0.0516221707696598
934,0.050353565480563786
935,0.0499133507263975
936,0.04950780706827425
937,0.049101282797072106
938,0.04827946224371014
939,0.047450736919068315
940,0.04695268473590984
941,0.04663658161537724
942,0.0463197004867997
943,0.045891196362581134
944,0.04537217869177089
945,0.04485195830321
946,0.044334828926302014
947,0.04386915632655842
948,0.043402401280839255
949,0.042934563789144516
950,0.04246564385147421
951,0.041995641467828325
952,0.04152455663820687
953,0.04104693404072056
954,0.040527928125003165
955,0.04000774385037564
956,0.03948638121683802
957,0.038521347920370215
958,0.03747502201712838
959,0.0367121673272254
960,0.036273413204518115
961,0.03583366525714319
962,0.034949392744512676
963,0.033885416340432135
964,0.033046552791239414
965,0.03255400180315695
966,0.03206035893601853
967,0.03142402372619461
968,0.030605176371501966
969,0.029784570042099015
970,0.0291928436426225
971,0.02872059687427535
972,0.028247315414922144
973,0.02704996917770275
974,0.025540245458206372
975,0.025240457338729788
976,0.02498902232834092
977,0.024660344177062435
978,0.023185856162428888
979,0.022164610324598908
980,0.02209516729822
981,0.02202553634719256
982,0.021061728147535003
983,0.01924489438098024
984,0.019042570671533286
985,0.018839795942929845
986,0.01821962187839341
987,0.01688037467899455
988,0.01629356525855128
989,0.016152077865571133
990,0.016010271000688477
991,0.015504652004781806
992,0.01479986170165618
993,0.01409361890707031
994,0.013589769076749515
995,0.013378132691550786
996,0.01316604342557804
997,0.013024275629775546
998,0.013056126592909821
999,0.013088015206338897
1000,0.013119941470062775
