Wavelength,Responsivity
400,0.06808153642167009
401,0.0683881852949635
402,0.07130397157522471
403,0.07383995453370987
404,0.07597226779779552
405,0.07835355113699831
406,0.0811491598497944
407,0.08377731740703954
408,0.08686670473220195
409,0.0907805828528692
410,0.09296107867698748
411,0.09488755803467337
412,0.09665453911667173
413,0.09801599697772732
414,0.09930040740154353
415,0.10022787776891066
416,0.1011586619401855
417,0.10198960283803866
418,0.10260315455013545
419,0.10321847168007336
420,0.103929980589294
421,0.10583951543797489
422,0.10996043105434226
423,0.11398939125745278
424,0.11911579443350072
425,0.12308601170309756
426,0.1254378359788205
427,0.1270308034493134
428,0.12831804871451755
429,0.12940905675766348
430,0.1304110029147234
431,0.1312956270519843
432,0.13200708377262171
433,0.1327204239492567
434,0.1334356475818891
435,0.13437084549908695
436,0.13536903419756297
437,0.13639773811579653
438,0.13829023221064765
439,0.13985210323668495
440,0.14117614498746114
441,0.1424337246858819
442,0.14368225939384535
443,0.1447822674354142
444,0.14585075217074256
445,0.1470566567485148
446,0.14838260223684907
447,0.14986104270512893
448,0.15129822850413627
449,0.15252698120974814
450,0.1538019162489561
451,0.1551711534877612
452,0.15651428375706122
453,0.15783554862897112
454,0.15889622756685753
455,0.15987554132055323
456,0.16048397196692119
457,0.16075152428714667
458,0.1610187073022746
459,0.16128366663698906
460,0.16096828533718802
461,0.1606500050728777
462,0.16032908799600915
463,0.16000631465764723
464,0.15968064798884746
465,0.159962616532614
466,0.16058670057047159
467,0.16121198666159492
468,0.1627416249376191
469,0.1645107492695563
470,0.1654026430413705
471,0.16629683947098728
472,0.16646112332658816
473,0.1664743189618127
474,0.1664860791795479
475,0.16614011439438697
476,0.1654296688557351
477,0.16414439916866919
478,0.1624843424796064
479,0.1608451124288747
480,0.15962839684090163
481,0.15863401373274608
482,0.15742664777815302
483,0.15667762623627618
484,0.15602904625870648
485,0.15569446298936837
486,0.1554432673754951
487,0.155378921860512
488,0.15544775915527217
489,0.1555155709748976
490,0.15517568801020631
491,0.15358620197706627
492,0.15082041066761104
493,0.14807033975277392
494,0.14559830199531099
495,0.14243715836310075
496,0.14031842240571016
497,0.13803407699853057
498,0.13698846255653174
499,0.13588285513762577
500,0.13402409995415637
501,0.13314997808647172
502,0.1322821963055867
503,0.1314265176539396
504,0.13058766731765512
505,0.12978104303184554
506,0.1285386810907427
507,0.1273688064172211
508,0.12662500136591626
509,0.1254015504102687
510,0.12361805698932979
511,0.1219065164986625
512,0.11844843267544952
513,0.11572676083901617
514,0.11182406991344965
515,0.10943837616822417
516,0.10613376065048824
517,0.10209763532952867
518,0.09854024299976047
519,0.09506852750504183
520,0.09226077680513149
521,0.08926662863931313
522,0.08695499899019755
523,0.08395046285929958
524,0.0821572852825663
525,0.07995957800798309
526,0.07777853413806281
527,0.07593975322679437
528,0.07422637413617993
529,0.072410392167654
530,0.07054594393596586
531,0.06865215842061785
532,0.06669749919308943
533,0.06462424787864993
534,0.0625380316463291
535,0.06059008099147172
536,0.05867645496540215
537,0.056922192585771116
538,0.05526599183355511
539,0.05334106218239388
540,0.05185694795273529
541,0.050722562059075715
542,0.049774724503023345
543,0.04894320777253716
544,0.04809649657106225
545,0.04722626803146701
546,0.046354435543324864
547,0.04551418073217438
548,0.044670543277350226
549,0.04375074790232339
550,0.04280076287644405
551,0.04161492244796831
552,0.04014688066184496
553,0.03843250738692406
554,0.03663378383964351
555,0.03481292856004748
556,0.033050006292971626
557,0.031279312123336574
558,0.02911008211596042
559,0.027676425239946015
560,0.025942719107879028
561,0.0246012379079822
562,0.023679128713928608
563,0.02268651490092156
564,0.02151968659338965
565,0.020579337037736466
566,0.019906040470892197
567,0.01923023605891641
568,0.019060783311527434
569,0.01891653316931054
570,0.018771658043405366
571,0.018600637517291418
572,0.018418227266681162
573,0.018235065317476762
574,0.01805311380131579
575,0.01787709640710357
576,0.017700357382240968
577,0.017522896726727983
578,0.017227510755371243
579,0.016891720009051647
580,0.01655466640909389
581,0.01619502512630457
582,0.01577666117068295
583,0.015356763749929262
584,0.01493533286404352
585,0.01453329704508402
586,0.014135264726772841
587,0.013735789147160902
588,0.01339058944654049
589,0.013165422293550727
590,0.012939413238135517
591,0.012712562280294862
592,0.012611524121919135
593,0.012534760773532657
594,0.012457666677764753
595,0.012418782550018959
596,0.012448614700706582
597,0.01247847691933797
598,0.012508369205913125
599,0.012554158787494345
600,0.012602178465744232
601,0.01265028834782542
602,0.012647434167916288
603,0.012568722859273783
604,0.012489680803249852
605,0.012410307999844498
606,0.012271621131651918
607,0.01212761015474614
608,0.011983057954852577
609,0.011829782576005934
610,0.011665793049372365
611,0.011501202163863477
612,0.01133600991947927
613,0.011214856319173936
614,0.011094688472910492
615,0.010974069607490563
616,0.010975700154055862
617,0.011104829376932421
618,0.011234319415134173
619,0.011365701640455313
620,0.011617089596628646
621,0.01186922925139613
622,0.01212212060475776
623,0.012470900087410452
624,0.012903690315555884
625,0.013337803533227012
626,0.013774836304485802
627,0.014239876952741965
628,0.014706330794355125
629,0.01517419782932528
630,0.015642463402386914
631,0.01611139846605189
632,0.016581741154936134
633,0.01703980659388597
634,0.017451931331339616
635,0.01786527122845166
636,0.018279826285222105
637,0.018669288820438616
638,0.019043897232360916
639,0.019419588090258788
640,0.019800527438819156
641,0.02020730002604389
642,0.020615245263075496
643,0.021024363149913967
644,0.021441857828182715
645,0.021864161599111892
646,0.022287671599376377
647,0.022728811587704924
648,0.02344603550863029
649,0.02416536465913019
650,0.02488679903920463
651,0.02571672961095386
652,0.026592580231122678
653,0.027470996333485573
654,0.02838426266161894
655,0.029356725327239413
656,0.030332024822332795
657,0.03132649400755228
658,0.03234550314861861
659,0.03336746465449909
660,0.0341727240973301
661,0.034919358411399294
662,0.03566809516861335
663,0.03629259838121655
664,0.03688078125594539
665,0.03747057088641923
666,0.03802572628940056
667,0.03800260070055244
668,0.03797923456815417
669,0.03795562789220579
670,0.037744553388464296
671,0.03739737673743738
672,0.037048997368659804
673,0.03669317435724286
674,0.036281582897378366
675,0.03586860831210064
676,0.035454250601409686
677,0.03512117274447585
678,0.03483668031302412
679,0.03455119563942812
680,0.03430520960473313
681,0.03429422963327345
682,0.03428306925415118
683,0.034271728467366314
684,0.034464796406692394
685,0.03475982000821016
686,0.035055557876800245
687,0.03538999968655809
688,0.036009298651597806
689,0.03663024815482722
690,0.03725284819624634
691,0.03796205062242363
692,0.038707473182178924
693,0.03945489136249824
694,0.04012213461742025
695,0.04064400991463739
696,0.04116722064328799
697,0.04169176680337206
698,0.04185717045175888
699,0.04190662899832354
700,0.04195605747694446
701,0.04186715194350992
702,0.041418766265144874
703,0.040968932978306456
704,0.04051765208299469
705,0.039556837425489905
706,0.038497450919307334
707,0.03760107307960928
708,0.03671719341787108
709,0.03577444793800903
710,0.03466825790426483
711,0.03355880970813415
712,0.032540850495095856
713,0.031537410088198096
714,0.030639574803096238
715,0.029837253735739346
716,0.02903256837848844
717,0.028510394835482705
718,0.02807088729068551
719,0.0276300447291851
720,0.027198193478139916
721,0.026824067985210833
722,0.02644879991041864
723,0.026072389253763355
724,0.02581899740768603
725,0.025625766784397704
726,0.025431904734290293
727,0.025256391149764953
728,0.025159794936938613
729,0.025062837908787078
730,0.024965520065310352
731,0.024946407079662065
732,0.024958523756699123
733,0.02497058029784865
734,0.02498780370904815
735,0.02502184703835203
736,0.02505589036765591
737,0.02508993369695979
738,0.02503137065492273
739,0.02494307734390219
740,0.02485445328550022
741,0.024684186944883058
742,0.024304756273986875
743,0.02392421308917135
744,0.023542557390436498
745,0.02297771070143345
746,0.022366441096817173
747,0.021753450011854206
748,0.02109137365835311
749,0.02034530248786411
750,0.019686401931356876
751,0.01923844892613373
752,0.018789233067272412
753,0.01834727592768285
754,0.017974894981973206
755,0.017601461658231756
756,0.0172269759564585
757,0.01700188063857154
758,0.016864799680652003
759,0.016727297771519746
760,0.01662916860577993
761,0.016754016764213772
762,0.01687913553414151
763,0.01700452491556314
764,0.01735447966069331
765,0.017814232510844356
766,0.018275127942858498
767,0.018754379134107244
768,0.019305827291592876
769,0.019858647835940393
770,0.020412840767149797
771,0.02169493728147136
772,0.02301928043563056
773,0.024460940271468463
774,0.0260784451091903
775,0.027700383419188655
776,0.02932699341956519
777,0.031118103818680874
778,0.03341077025355159
779,0.036458263839780826
780,0.03902739479273671
781,0.04162605460982088
782,0.04525319928816235
783,0.048435752298144674
784,0.051486494630260275
785,0.054420188181037214
786,0.05739071138505848
787,0.06018470869982786
788,0.06293122314389031
789,0.06578882818175563
790,0.06900322149485269
791,0.07100543525326762
792,0.072900160097585
793,0.07441828650531306
794,0.07594000958580537
795,0.07744836532719747
796,0.07895939144587608
797,0.08044841777329519
798,0.08192602513923204
799,0.08347055848241108
800,0.0851581045057676
801,0.08684960822222229
802,0.08867803244392666
803,0.09051149029135354
804,0.09278440828506279
805,0.09480983613346816
806,0.09658833132759306
807,0.09891221088541588
808,0.10147401719883736
809,0.10349695124130068
810,0.1054960959327254
811,0.107433103985253
812,0.10918946890879606
813,0.1107779859169734
814,0.11235097171071501
815,0.11386742231450182
816,0.11538725556196233
817,0.11670875362441437
818,0.11801626051341163
819,0.11926968719541282
820,0.12042972214335677
821,0.12159223125353062
822,0.12269598984355869
823,0.12337729226898089
824,0.12405988761598498
825,0.12474377588457107
826,0.12531629104883346
827,0.12582856543457563
828,0.12634171179068698
829,0.12680699949015956
830,0.12703483248134306
831,0.12726284588018918
832,0.12749103968669784
833,0.12753744013521232
834,0.12750247131758727
835,0.12746705148080573
836,0.12732365114140196
837,0.1267838632638826
838,0.12624242164945615
839,0.12569932629812253
840,0.12446239406689537
841,0.12297336824111677
842,0.12167582859083952
843,0.12038399102710885
844,0.11880622358259466
845,0.1171141103312843
846,0.11570764446028253
847,0.11429005887718911
848,0.11276349817651309
849,0.11135973342598804
850,0.11012781907235428
851,0.10881871987716397
852,0.10717716989076231
853,0.10554012603440927
854,0.10391177693706617
855,0.10249281132052526
856,0.10119966097713759
857,0.10003822420483059
858,0.09912980060985271
859,0.09821898737778466
860,0.09790132671304781
861,0.09764697347097867
862,0.09739176496295353
863,0.0971887078351093
864,0.09702854872369758
865,0.09686775818546677
866,0.09670449412578751
867,0.0965163696995435
868,0.09632755371059289
869,0.09613804615893563
870,0.09596335126159442
871,0.09579866758448315
872,0.09563335248055277
873,0.09546590141968705
874,0.09528618204729065
875,0.09510580118013139
876,0.09492475881820925
877,0.09459000323870664
878,0.09416676063654228
879,0.09374230824181697
880,0.09330461494331935
881,0.09277488631186014
882,0.09224371441910016
883,0.0917110992650394
884,0.09073584994004953
885,0.08970216782402371
886,0.08871903437817616
887,0.08808965850813985
888,0.08745863774470927
889,0.08668843926715429
890,0.08526060478504884
891,0.08422048124127406
892,0.08368740261260767
893,0.08315291680417304
894,0.08206360807885836
895,0.08056799995008643
896,0.07986448875748894
897,0.07915920628965871
898,0.07845215254659572
899,0.07736567003712612
900,0.07623397578962154
901,0.07548613341477606
902,0.07501663958737621
903,0.07454591898787072
904,0.0733680450591394
905,0.071857332288194
906,0.07141197093305744
907,0.07103058342122613
908,0.07064818111629273
909,0.06783023856965896
910,0.06709385468772722
911,0.06635568837808903
912,0.06551611632318066
913,0.06441338582097973
914,0.06330808233225294
915,0.06208982585207568
916,0.06074641938752321
917,0.059401892576232886
918,0.05808544837129133
919,0.05676599496653768
920,0.05560075668061761
921,0.0545198761793518
922,0.053436517250059164
923,0.05246815157509447
924,0.051519598397449407
925,0.05056886903276475
926,0.04993831218652693
927,0.04938095787895175
928,0.048822284729153446
929,0.04806244095491455
930,0.04723613253485773
931,0.04673525911112255
932,0.0464687293734161
933,0.046201519960329625
934,0.04594674582957249
935,0.04570636205098196
936,0.0454653588557142
937,0.04522373624376919
938,0.04493610090155644
939,0.04463722970589874
940,0.04433761990004594
941,0.04408602538024059
942,0.043951813715488224
943,0.04381721763066975
944,0.0436822371257852
945,0.04347667369228309
946,0.04325785474760932
947,0.04303847591708612
948,0.0428022074350307
949,0.042434446752054794
950,0.04206581586741224
951,0.04169631478110305
952,0.041121918466837014
953,0.040503256184470295
954,0.03988320490404507
955,0.039466966053508946
956,0.03909235818770479
957,0.038716880165976304
958,0.03761177361913199
959,0.03632769246957243
960,0.03619671170287812
961,0.036065379141241756
962,0.03573777567422636
963,0.03414618220032113
964,0.03316143945136996
965,0.03310879258762355
966,0.03305596531621454
967,0.029695884651743398
968,0.029784805482137588
969,0.02987384658430683
970,0.02996300795825114
971,0.026599752633982572
972,0.026685598900632535
973,0.02677156543905756
974,0.023490537451874766
975,0.023550279851053874
976,0.023610095326754538
977,0.02366998387897676
978,0.021014802349474313
979,0.020822712110888385
980,0.020665340308846248
981,0.020501986509533842
982,0.01923847322450414
983,0.018245613201415357
984,0.0180052893583901
985,0.01776443932634894
986,0.01732412698029394
987,0.016540416455376423
988,0.015782676272786945
989,0.015559727649843485
990,0.015336295866148474
991,0.01511238092170192
992,0.01462849007267111
993,0.014141631069358108
994,0.013653761783134575
995,0.01334038469749788
996,0.013062170526475845
997,0.012783370769926042
998,0.012451070469705837
999,0.012085069256861954
1000,0.011718310331835168
