Wavelength,Responsivity
400,0.0
401,0.00291161092017934
402,0.003044031271169655
403,0.003176957642502279
404,0.0032950645359640838
405,0.0034025933406161353
406,0.0034813712817108405
407,0.0035405040629860724
408,0.003605728599894166
409,0.003669293745264998
410,0.003730816221620582
411,0.003971170853616031
412,0.004061658823472364
413,0.004363944729240363
414,0.00466293931108284
415,0.004882040946706067
416,0.0051065987372851925
417,0.005251192249738041
418,0.005402726107123325
419,0.005560847697783212
420,0.00573347167277177
421,0.006093493573942479
422,0.006278383561281829
423,0.006577806573786004
424,0.006989361353063374
425,0.007381197506901265
426,0.007749423287926457
427,0.008111121171777926
428,0.00847350288584284
429,0.008829016356071744
430,0.00918715698460904
431,0.00954575932757723
432,0.009898301487713392
433,0.01024183782444388
434,0.010580654444250551
435,0.010912720977740412
436,0.011250165276564774
437,0.011594301140059021
438,0.011897691090600683
439,0.012149059673697003
440,0.012331867284401003
441,0.012454846732787971
442,0.012519066243831112
443,0.012486171591193428
444,0.012308312320495606
445,0.012187540850779695
446,0.012072510993596164
447,0.011967624243473139
448,0.011875913178137293
449,0.011770576797796008
450,0.011671986006239064
451,0.011713294241673975
452,0.011916415480000258
453,0.012258147713961698
454,0.012486169866841122
455,0.012706277474787708
456,0.012776817491689196
457,0.012843616670448409
458,0.012907436234587427
459,0.012991631769253381
460,0.013089729538141677
461,0.013259173470329398
462,0.01353862165591373
463,0.013963580487861857
464,0.01418673613561042
465,0.014366272993327772
466,0.014445116714848594
467,0.014491111431078233
468,0.014245955120829438
469,0.014021671369251245
470,0.0139378560316566
471,0.01394115009892805
472,0.013985253717135835
473,0.014032585123731754
474,0.01408342993304473
475,0.014215637388175396
476,0.014376828804892813
477,0.014680644368858168
478,0.014967836587210992
479,0.015243327215380359
480,0.015424890776807412
481,0.015572824330029012
482,0.015625744123327352
483,0.015684346532499165
484,0.01568513137714614
485,0.015647035731126857
486,0.015614228668148662
487,0.015546198159669499
488,0.015563596172119106
489,0.015604528942733802
490,0.015677647880986426
491,0.015773485204822107
492,0.016108706165062946
493,0.016491994911339406
494,0.016903505390932324
495,0.017262441225461448
496,0.01775540197287751
497,0.01825389662340551
498,0.01868744716419995
499,0.01907818772750883
500,0.01946300488693764
501,0.019352491980679874
502,0.019177240741091502
503,0.01865410152689418
504,0.01824561534735848
505,0.018037961826918157
506,0.017880941073994697
507,0.017830303396252554
508,0.017811106688540062
509,0.017804048833600226
510,0.017843874201452226
511,0.01792361905138197
512,0.018008834599296992
513,0.01806986539649152
514,0.018144261306324416
515,0.018189830844527435
516,0.018224601583048606
517,0.018007727175482456
518,0.017752642764536836
519,0.017561722909298742
520,0.0174435782550401
521,0.017403930562536148
522,0.017437353604728954
523,0.017524579350565582
524,0.017626908904843037
525,0.017794062551395345
526,0.01801102668474782
527,0.01828685373878285
528,0.018803691431813336
529,0.019258634178017302
530,0.019637919812405303
531,0.02002574354859984
532,0.020361158177767326
533,0.020722427953541032
534,0.02111111410555964
535,0.021528928302577563
536,0.022122093455504324
537,0.02279177604151888
538,0.023581192603057254
539,0.024319427516622794
540,0.02505816378856602
541,0.02570026146785709
542,0.026389845471904334
543,0.027009460871169958
544,0.027584657040258996
545,0.028213320383662616
546,0.0288258916020359
547,0.029565114045393047
548,0.030413818184422303
549,0.0313940099493346
550,0.032472893467683804
551,0.033660030443006916
552,0.034928730096096997
553,0.03662068077692571
554,0.03844545575957451
555,0.04037887605970234
556,0.04245781323876801
557,0.04479088093954071
558,0.04716760122504606
559,0.04956760819633969
560,0.051961966283038556
561,0.0542866647312838
562,0.056634069221570854
563,0.05827981977382379
564,0.060106358147460646
565,0.062199345746803386
566,0.06448244505463985
567,0.06680557525589943
568,0.06934893495223182
569,0.07185106587872242
570,0.07431265503025358
571,0.07698837527602367
572,0.07948945554302604
573,0.0817501146009278
574,0.08374370984701546
575,0.08547083003119159
576,0.0867678395810848
577,0.08758651361220501
578,0.08790956742152393
579,0.08769702413590022
580,0.0871217466669895
581,0.08613569974825844
582,0.08486762259972006
583,0.083151535104516
584,0.0809770150663041
585,0.07796668641976373
586,0.07471246071549247
587,0.07133458408896828
588,0.06769573389934994
589,0.06392363594133899
590,0.06023239271993842
591,0.05591734410726743
592,0.051755432661174904
593,0.047436603280709075
594,0.04364895548978452
595,0.04045980352922883
596,0.03777390489853708
597,0.03538009868589511
598,0.03325354435567287
599,0.03126917233144422
600,0.029581696576574956
601,0.02831406638124019
602,0.02719782884173399
603,0.026546195830836717
604,0.025668322021980515
605,0.024822172185105105
606,0.023994694395935674
607,0.02321484633290491
608,0.02234952785910819
609,0.021465112094054106
610,0.020578546495455145
611,0.019571403308985793
612,0.018584478669831546
613,0.01762526270233019
614,0.016572948812516884
615,0.015659827552896622
616,0.0148752730283678
617,0.014075478186378984
618,0.013316631884063772
619,0.012686101117759844
620,0.012143097003431597
621,0.011667527560248404
622,0.011269719034999204
623,0.010893660588757875
624,0.010537924734978443
625,0.010201191700752442
626,0.009910792243154002
627,0.009635255862118748
628,0.009374712035701867
629,0.009135829280508947
630,0.008908680555206059
631,0.008685126002230868
632,0.008470695733643646
633,0.008269548997234687
634,0.00808714941597065
635,0.007922845778297218
636,0.007793709677190772
637,0.007689166618150593
638,0.007589359367883091
639,0.007489809013497008
640,0.0073874010589266995
641,0.007261503134247621
642,0.0071258416969873575
643,0.0069862734345971286
644,0.006851773211423652
645,0.006704127345469967
646,0.00656295259836768
647,0.0063239687863128865
648,0.0061004505025910255
649,0.005890421828303376
650,0.005681999738430727
651,0.005498410679671468
652,0.005315958286809652
653,0.00512705084274397
654,0.004972699732137372
655,0.0048471314768572865
656,0.004734955773197048
657,0.00465152540663998
658,0.004571480656208701
659,0.004497286629039759
660,0.00443785236099577
661,0.004380998099824144
662,0.004420785261878269
663,0.004431379863999301
664,0.0044403703417192205
665,0.004454594404542607
666,0.004446723888765957
667,0.0044339965508799675
668,0.0044194435574567105
669,0.004402123315445803
670,0.00435655572898451
671,0.004313056289489427
672,0.0042231295140937215
673,0.004125538521006741
674,0.004041667762297539
675,0.0039445271893245645
676,0.0038639717158977078
677,0.0037635411466972984
678,0.003669060177482856
679,0.00358456946209197
680,0.0035049873361684128
681,0.0034331634112108374
682,0.0033625442909573948
683,0.0032924278865813067
684,0.0032353221045660434
685,0.0032116865369095533
686,0.003191551157560987
687,0.003173875756697213
688,0.0031636366292424295
689,0.0031544811801137475
690,0.0031463972326660253
691,0.003135859686241199
692,0.0031100263977022068
693,0.0030853199126568043
694,0.003081124109720853
695,0.003079036222612921
696,0.003077960831492892
697,0.003083185270745548
698,0.0031020158374578713
699,0.003121792660271513
700,0.0031393822646402733
701,0.0031601929603500447
702,0.0031807466559100285
703,0.0032019507421950357
704,0.003226386515707819
705,0.00325646348570195
706,0.0032972633131071677
707,0.0033559222189736494
708,0.003418054490297381
709,0.003472344285583154
710,0.00352384316279138
711,0.0035738891540153103
712,0.0036194108446288586
713,0.0036583109091420985
714,0.003692152100877482
715,0.0037169805678168564
716,0.003733343751747342
717,0.0036867484970987876
718,0.003641499266108509
719,0.003622871775748066
720,0.0036001457506028207
721,0.0035679230666788102
722,0.0035379743468945952
723,0.0035116839574873427
724,0.003487725106768158
725,0.0034672050717036457
726,0.0034569507885675744
727,0.003455709680623108
728,0.0034532406412566036
729,0.003461151900590829
730,0.003485018002235303
731,0.003510190767935682
732,0.0035451240633294556
733,0.0035907703878530796
734,0.0036382518676550623
735,0.003687640382286488
736,0.0037832939685793748
737,0.0038972660414656416
738,0.004033402104493668
739,0.004165333341307031
740,0.0042770764577729666
741,0.004381105327210049
742,0.0044826391613670726
743,0.004584102462751413
744,0.004663007804159503
745,0.004742998038338483
746,0.004826316730500225
747,0.004911995545779
748,0.004981489770772076
749,0.0050540981774356
750,0.0051299666924401075
751,0.005195554924839273
752,0.005260748253158778
753,0.0053235910749280056
754,0.0053788431861310675
755,0.005427589395641592
756,0.005480628703324706
757,0.00550969558056826
758,0.005542914923615403
759,0.005580901010316015
760,0.005621097700705748
761,0.005667511597670746
762,0.0057364408099231535
763,0.005818976386627633
764,0.0059100345858523525
765,0.006040064562128401
766,0.006190814397736208
767,0.006349211756049066
768,0.006526911429409795
769,0.0067211718895233375
770,0.006925800211980139
771,0.0071415178753174244
772,0.007356772969668679
773,0.007580273543234919
774,0.007816361416825868
775,0.008065961812907002
776,0.008312070611314922
777,0.008550282091028491
778,0.008802588226133832
779,0.009084630162221788
780,0.009383917114496081
781,0.009705800234352876
782,0.010067320100197095
783,0.010452540059429815
784,0.010863498539242364
785,0.011302450591916941
786,0.011802417383836378
787,0.012343630944209222
788,0.01292468737812771
789,0.013549403641906427
790,0.014229946889601447
791,0.014991090783113165
792,0.01581388516012107
793,0.016704733320186703
794,0.01766995292434532
795,0.018718064763384147
796,0.019858409012318834
797,0.021101160025096915
798,0.022409585312274785
799,0.023755922893514816
800,0.02522586745857501
801,0.026824108901085802
802,0.028428462867540156
803,0.030167664123517596
804,0.0319692238757277
805,0.033642926805743954
806,0.035396145345652955
807,0.036858582859881917
808,0.03858362849655162
809,0.04045156723862666
810,0.04280878892627366
811,0.04558767325495203
812,0.048630615831841834
813,0.051964671460080256
814,0.0555420047436659
815,0.058917626113321665
816,0.06212270124526426
817,0.06533237484517111
818,0.06844729104274451
819,0.07164566394822783
820,0.07449265430568268
821,0.0766547825229368
822,0.07834572879638985
823,0.07913903594279831
824,0.07891381050688376
825,0.07768148203422451
826,0.07556851369705726
827,0.07270998012593634
828,0.06925352027897969
829,0.06539102330978622
830,0.06131588938098444
831,0.05720778752328189
832,0.05314586841716236
833,0.049220566209829474
834,0.04549271517182486
835,0.04219158419120517
836,0.03913871647869405
837,0.03633971253710225
838,0.03378439860375683
839,0.031354731539695625
840,0.02904235730166979
841,0.026936975303511745
842,0.02502137759794298
843,0.023176167193156967
844,0.021471446469581223
845,0.019925166790451452
846,0.01852108345864542
847,0.017179709015092005
848,0.015932130790642898
849,0.014762255119371393
850,0.01366704155278129
851,0.012683208083409527
852,0.011730045993426001
853,0.01081571355117361
854,0.010003608726984622
855,0.009266069554979
856,0.00859454619663905
857,0.008026877073938884
858,0.007467590563484754
859,0.006973558880162877
860,0.006538057777486301
861,0.006165261864504849
862,0.005818572152778111
863,0.0054962142170867445
864,0.005195765388489064
865,0.004915255536065222
866,0.004653149128594131
867,0.004408946636085166
868,0.004180556265690374
869,0.0039814392963581835
870,0.0038153156202206393
871,0.0036587243992393485
872,0.0035194954615369316
873,0.003396585198537035
874,0.003280105279405873
875,0.003169624202351897
876,0.003057436446515505
877,0.0029471156485540244
878,0.0028424242633125784
879,0.0027429976474929265
880,0.0026402237096553225
881,0.002526112453831764
882,0.0024188633801822223
883,0.002322874476832897
884,0.002231626172238509
885,0.002153088212090483
886,0.0020841258315269636
887,0.0020182822910228635
888,0.00195537792067432
889,0.0018922498451871762
890,0.0018168107263272493
891,0.0017448412230516967
892,0.0016602329050499633
893,0.0015827353535093711
894,0.0015248956961824954
895,0.0014695653618644576
896,0.001424297102900729
897,0.0013886268667547405
898,0.0013543221550496214
899,0.0013213153174715328
900,0.0012895427878274227
901,0.0012658474445984295
902,0.0012433778491070628
903,0.0012216655592960206
904,0.0011968916419651048
905,0.0011702544764514175
906,0.001144584752436744
907,0.0011198366088061346
908,0.001095909837487529
909,0.0010692750396262755
910,0.0010436047073017036
911,0.001018853854925783
912,0.00099498005109761
913,0.0009670279869360487
914,0.0009379966826122011
915,0.0009100221574106192
916,0.0008789785551841051
917,0.0008394899906050483
918,0.000802678974920957
919,0.0007677412220572429
920,0.0007342553080214086
921,0.0007023686207410798
922,0.000671458294267126
923,0.0006414754475419333
924,0.0006122315595386194
925,0.0005834383983575585
926,0.0005550566950088283
927,0.0005266843930612035
928,0.000499849627965443
929,0.0004766438697251225
930,0.00045834433844776755
931,0.0004412322675191757
932,0.0004269889020595495
933,0.00041319281376746037
934,0.00039851837915736164
935,0.0003798283254365848
936,0.00035985065916454705
937,0.00033755557599917285
938,0.0003191425036389406
939,0.0003072235223722343
940,0.0002972613468502774
941,0.00029083814739606434
942,0.0002860615111538664
943,0.0002814112223117527
944,0.00027688296300233916
945,0.00027110294525602635
946,0.00026271925504363467
947,0.00025456817131159245
948,0.0002466414062107273
949,0.00024203864143387062
950,0.0002377881189334833
951,0.00023379476149770347
952,0.00022989991945261297
953,0.00022586970361059675
954,0.00022158028807252973
955,0.00021739561275938645
956,0.0002133123330556578
957,0.0002091448915268847
958,0.00020269498718635142
959,0.00019640183928554565
960,0.00019026037360887665
961,0.00018309075594019917
962,0.0001756208965100689
963,0.00016942696912871985
964,0.0001653455419224003
965,0.00016135761999423295
966,0.00015882179259744765
967,0.0001581051669503823
968,0.00015740254062561658
969,0.00015671364771938366
970,0.00015606704354102392
971,0.0001554524914287355
972,0.00015484986497551597
973,0.00015425895954888802
974,0.00015340495662537017
975,0.00014958218534072312
976,0.00014583963040838862
977,0.00014182976355560405
978,0.00013376730954908092
979,0.00012781342763776898
980,0.00012284446695623642
981,0.0001180029370926357
982,0.00011357924354538311
983,0.00010924318088512629
984,0.00010489180824701323
985,0.00010022316069166281
986,9.564451663379544e-05
987,9.125958843638873e-05
988,8.704064361973016e-05
989,8.290084739375969e-05
990,8.092001505862637e-05
991,7.905391744983013e-05
992,7.722224866178519e-05
993,7.542409885787116e-05
994,7.236065632722916e-05
995,6.8313082431978e-05
996,6.43366058495677e-05
997,5.985514383862804e-05
998,5.542831885735261e-05
999,4.9057620735115294e-05
1000,0.0
